gt,time_elapsed,current_time,current_task,emg0,emg1,emg2,emg3,emg4,emg5,emg6,emg7,emg_timer_stamp
0,0.027518272,20250904135757773,None,-4,-1,-3,-1,1,1,0,-1,1757008677772967100
0,0.02772975,20250904135757773,None,6,0,1,1,0,6,-5,-1,1757008677773102998
0,0.034701347,20250904135757780,None,0,-3,-1,-2,1,-9,3,-1,1757008677780049324
0,0.034956932,20250904135757780,None,-2,-2,0,0,-1,-1,-4,-4,1757008677780236959
0,0.049853086,20250904135757795,None,-3,1,0,-4,1,0,1,-2,1757008677795131206
0,0.050085306,20250904135757795,None,8,3,-1,0,0,1,0,3,1757008677795355558
0,0.057040214,20250904135757802,None,-1,-3,-2,0,0,-3,-1,1,1757008677802504301
0,0.057161569,20250904135757802,None,-1,0,-1,-1,-2,-2,-3,-1,1757008677802633285
0,0.064239263,20250904135757809,None,-4,-2,-2,-4,1,3,4,3,1757008677809815406
0,0.064258814,20250904135757809,None,0,-2,-1,0,4,-2,-1,-3,1757008677809890985
0,0.079511642,20250904135757825,None,-1,2,0,0,-3,-6,0,1,1757008677824902057
0,0.079615116,20250904135757825,None,1,1,0,-3,-1,-1,0,-2,1757008677825041770
0,0.087043285,20250904135757832,None,-1,0,-1,-1,-1,2,-1,1,1757008677832524538
0,0.087126493,20250904135757832,None,-6,-2,-2,0,-1,-1,-2,-3,1757008677832689762
0,0.094372988,20250904135757840,None,7,2,0,0,-2,-3,-1,2,1757008677839918613
0,0.094565153,20250904135757840,None,-1,-3,0,0,-1,-3,-4,-1,1757008677840061664
0,0.109547853,20250904135757855,None,-3,-1,1,-1,1,6,2,-3,1757008677854954481
0,0.109641313,20250904135757855,None,-1,-2,-6,0,-1,2,-1,-2,1757008677855082273
0,0.116985321,20250904135757862,None,-3,-1,-3,-5,-1,-3,-6,-7,1757008677862435340
0,0.117076397,20250904135757862,None,-1,-1,-1,-1,2,9,3,1,1757008677862550020
0,0.13195467,20250904135757877,None,-4,-1,-1,-2,-1,-8,-4,0,1757008677877461910
0,0.132041216,20250904135757877,None,1,-3,2,1,1,-5,-1,-4,1757008677877579927
0,0.139772415,20250904135757885,None,0,-2,-3,1,-1,-1,-1,0,1757008677884924650
0,0.139961958,20250904135757885,None,-3,-1,1,-1,-1,2,-1,0,1757008677885036230
0,0.147101164,20250904135757892,None,-3,1,-5,-2,-3,-1,-3,-4,1757008677892406225
0,0.147295475,20250904135757893,None,1,0,-5,0,-2,4,5,-1,1757008677892509460
0,0.15466547,20250904135757900,None,-1,0,-1,-3,-1,-5,-7,-3,1757008677899878025
0,0.154841661,20250904135757900,None,-1,0,-1,-5,0,-2,1,-3,1757008677899976730
0,0.169849157,20250904135757915,None,-4,-4,-5,0,-2,3,-1,-1,1757008677914980411
0,0.170042753,20250904135757915,None,-1,0,-1,1,0,-6,-1,0,1757008677915142774
0,0.177156925,20250904135757922,None,-3,-1,-1,-3,-1,-4,-6,-3,1757008677922440290
0,0.177344322,20250904135757923,None,-3,-1,-4,-5,-5,2,5,-2,1757008677922547101
0,0.184694767,20250904135757930,None,-4,0,2,-1,-5,-3,-2,1,1757008677929978370
0,0.184897184,20250904135757930,None,0,-2,-3,2,-3,7,-4,0,1757008677930146217
0,0.199453831,20250904135757945,None,-1,2,-2,-2,3,-3,1,1,1757008677944919824
0,0.199595213,20250904135757945,None,1,1,1,-1,-6,1,0,-2,1757008677945031881
0,0.206887007,20250904135757952,None,-2,-1,2,0,-1,-1,-2,0,1757008677952423572
0,0.206977129,20250904135757952,None,-3,-2,1,-1,1,-3,-1,-5,1757008677952530622
0,0.214609623,20250904135757960,None,-5,-4,2,-1,-1,1,-1,3,1757008677960126399
0,0.214727163,20250904135757960,None,0,-1,-2,1,-1,-1,-4,-4,1757008677960310935
0,0.229673862,20250904135757975,None,11,1,-1,1,2,-4,-2,-3,1757008677975150585
0,0.229774952,20250904135757975,None,-1,1,-3,-1,2,4,-3,0,1757008677975363731
0,0.237145185,20250904135757982,None,-2,2,-3,-5,-1,-1,-1,3,1757008677982664585
0,0.237262487,20250904135757982,None,-4,0,1,-1,-1,-2,-3,-3,1757008677982862710
0,0.244684219,20250904135757990,None,-2,-1,0,0,-2,-1,-3,-1,1757008677990160942
0,0.244797945,20250904135757990,None,-1,-3,-1,-2,0,-2,1,1,1757008677990390777
0,0.259640932,20250904135758005,None,-4,-1,-4,-1,0,1,-2,-1,1757008678005110263
0,0.259716272,20250904135758005,None,-1,2,-2,0,1,2,-3,-3,1757008678005293369
0,0.267104626,20250904135758012,None,0,1,-4,-3,0,3,2,0,1757008678012593507
0,0.267217636,20250904135758012,None,1,0,-1,1,-3,-12,-4,-3,1757008678012806415
0,0.274649382,20250904135758020,None,-2,-1,1,-2,0,1,-4,-1,1757008678020136117
0,0.274782181,20250904135758020,None,-5,-2,-1,-3,0,9,0,2,1757008678020355939
0,0.290238857,20250904135758036,None,0,1,1,-1,-1,-8,1,2,1757008678035176277
0,0.290469885,20250904135758036,None,-6,-1,-4,-1,0,-2,-2,0,1757008678035386323
0,0.297883034,20250904135758043,None,0,-1,0,2,-1,0,-1,-4,1757008678042746067
0,0.298184156,20250904135758043,None,-4,3,0,-1,-4,1,0,3,1757008678042937278
0,0.30529046,20250904135758051,None,-2,-2,-3,-1,-1,1,0,-2,1757008678050309896
0,0.305532694,20250904135758051,None,-3,-2,2,-2,-1,2,3,-2,1757008678050490617
0,0.32062602,20250904135758066,None,2,-5,-1,-4,1,-3,-6,-4,1757008678065303087
0,0.320841551,20250904135758066,None,-4,-1,-1,-1,-2,-2,-4,-1,1757008678065700531
0,0.327759266,20250904135758073,None,5,1,-1,-1,-3,-1,-1,-1,1757008678072757005
0,0.327978611,20250904135758073,None,-2,-3,-1,1,1,3,2,-3,1757008678072923183
0,0.335092544,20250904135758080,None,2,0,3,-1,-1,3,0,2,1757008678080137252
0,0.335292101,20250904135758081,None,-2,-2,-1,-1,-2,-3,8,-3,1757008678080276012
0,0.349994659,20250904135758095,None,0,0,-2,1,0,-5,2,-4,1757008678095078468
0,0.350192308,20250904135758096,None,0,1,1,1,-2,1,-4,-2,1757008678095210075
0,0.357475519,20250904135758103,None,1,1,0,2,-1,0,1,0,1757008678102570295
0,0.35788846,20250904135758103,None,-3,-2,-2,2,0,-5,-3,3,1757008678102676153
0,0.364859342,20250904135758110,None,6,2,1,0,-5,-2,0,-3,1757008678110063552
0,0.364999533,20250904135758110,None,-1,-2,1,-4,-3,-3,-12,-5,1757008678110185384
0,0.380013943,20250904135758125,None,0,-1,-1,-2,-1,1,9,-1,1757008678125161647
0,0.380176306,20250904135758125,None,-1,0,-3,-4,-1,0,4,3,1757008678125346899
0,0.38727498,20250904135758133,None,-1,2,-2,3,0,-3,-3,-6,1757008678132562875
0,0.387394905,20250904135758133,None,-3,-3,-3,-1,0,4,-2,-1,1757008678132699966
0,0.39504075,20250904135758140,None,-7,-1,-2,1,0,3,-4,-2,1757008678140060901
0,0.39529109,20250904135758141,None,4,0,0,0,-6,-9,2,1,1757008678140196084
0,0.409860134,20250904135758155,None,-3,1,2,2,-1,-5,-8,-1,1757008678155120372
0,0.410026073,20250904135758155,None,1,-1,2,0,1,1,-1,2,1757008678155257940
0,0.417287111,20250904135758163,None,0,-4,-1,-3,-1,4,0,-1,1757008678162604570
0,0.417399406,20250904135758163,None,0,-3,3,1,-1,-5,-4,-6,1757008678162739038
0,0.424753189,20250904135758170,None,3,-2,1,-1,-2,-3,0,0,1757008678170060396
0,0.424852609,20250904135758170,None,0,-1,-1,-3,-3,-1,0,-3,1757008678170179843
0,0.439824819,20250904135758185,None,-1,-1,1,-2,0,3,-2,-2,1757008678185115575
0,0.439968109,20250904135758185,None,-4,-1,-4,-1,-2,-2,0,4,1757008678185258865
0,0.447231054,20250904135758192,None,-3,-2,-1,-1,2,8,-1,1,1757008678192550420
0,0.447343349,20250904135758193,None,-7,-4,-1,-3,1,-4,4,-2,1757008678192679882
0,0.454707384,20250904135758200,None,4,-2,-4,-1,1,-1,-7,-1,1757008678200042486
0,0.454805374,20250904135758200,None,-1,2,0,-1,-1,-1,-1,0,1757008678200153350
0,0.469823599,20250904135758215,None,0,1,1,6,2,-1,-3,-1,1757008678215123414
0,0.469944954,20250904135758215,None,-3,0,-2,2,2,1,2,1,1757008678215253829
0,0.477188825,20250904135758222,None,-3,3,-2,-2,-1,3,-1,-1,1757008678222568511
0,0.477295399,20250904135758223,None,2,-2,-1,1,-3,-4,0,3,1757008678222680330
0,0.484578371,20250904135758230,None,2,-2,-2,-2,0,1,-2,0,1757008678230022668
0,0.484672785,20250904135758230,None,-4,-4,-1,-2,0,-2,1,-1,1757008678230138540
0,0.499837637,20250904135758245,None,3,1,0,-1,-3,-8,-2,-3,1757008678245112419
0,0.499956608,20250904135758245,None,5,-2,3,2,0,3,-4,0,1757008678245252847
0,0.507229328,20250904135758252,None,-3,-2,-1,-1,1,4,2,-1,1757008678252572298
0,0.507335424,20250904135758253,None,-5,-1,-1,-2,-1,0,-6,-2,1757008678252696275
0,0.514852524,20250904135758260,None,0,-2,-1,-3,0,-1,4,2,1757008678260121583
0,0.514985323,20250904135758260,None,2,-1,-2,0,1,6,3,1,1757008678260268688
0,0.529937506,20250904135758275,None,-4,-2,-1,-4,-4,-1,0,3,1757008678275159835
0,0.53006053,20250904135758275,None,-4,1,-4,-3,-4,-3,-3,-2,1757008678275330543
0,0.537264109,20250904135758283,None,2,2,-3,-2,-4,3,0,-2,1757008678282612323
0,0.53739357,20250904135758283,None,0,-1,-2,1,-3,-7,-8,1,1757008678282733201
0,0.545100212,20250904135758290,None,-1,-3,0,-3,0,0,10,1,1757008678290298223
0,0.545236111,20250904135758290,None,2,1,-2,0,3,3,-1,-1,1757008678290478944
0,0.559957743,20250904135758305,None,-4,-4,-2,1,1,-6,-1,-2,1757008678305153608
0,0.560095548,20250904135758305,None,0,-2,1,0,-4,-2,-1,-3,1757008678305334568
0,0.567256212,20250904135758312,None,-4,0,-3,-3,3,-2,-1,0,1757008678312573671
0,0.56736207,20250904135758313,None,3,-1,-1,-3,-1,0,1,2,1757008678312706708
0,0.574728727,20250904135758320,None,-2,-1,1,0,-2,1,0,0,1757008678320042610
0,0.574859381,20250904135758320,None,-3,0,-2,-5,-6,0,-3,1,1757008678320172071
0,0.589860678,20250904135758335,None,1,1,-3,-1,-1,0,3,5,1757008678335145235
0,0.589990616,20250904135758335,None,-5,-4,-2,0,-5,-1,-3,-3,1757008678335257530
0,0.597311258,20250904135758343,None,-1,0,-1,-4,-1,0,2,0,1757008678342611789
0,0.597448587,20250904135758343,None,-3,-4,-7,-2,0,-4,-7,2,1757008678342755794
0,0.604784965,20250904135758350,None,-1,-2,0,1,-2,-1,-1,-3,1757008678350112438
0,0.604895115,20250904135758350,None,-1,-2,0,0,1,0,-1,-1,1757008678350255012
0,0.619820118,20250904135758365,None,3,-2,-3,0,0,2,3,1,1757008678365110635
0,0.619946003,20250904135758365,None,-3,-2,-1,-2,0,2,-2,-4,1757008678365257740
0,0.627243757,20250904135758372,None,0,0,2,1,1,-4,-5,1,1757008678372571468
0,0.627354145,20250904135758373,None,-2,0,0,1,-2,-2,-2,0,1757008678372699975
0,0.634818792,20250904135758380,None,-1,-1,-4,1,-2,0,4,2,1757008678380100250
0,0.634928226,20250904135758380,None,-2,0,-4,-1,-1,2,2,-1,1757008678380255222
0,0.649802446,20250904135758395,None,-1,-3,-2,-2,-2,-2,1,0,1757008678395116090
0,0.649932861,20250904135758395,None,0,1,-2,1,2,1,-5,-2,1757008678395253658
0,0.657184362,20250904135758402,None,-3,-2,-1,-2,-6,-6,-1,-4,1757008678402562141
0,0.657306909,20250904135758403,None,-3,-1,3,1,-1,4,3,2,1757008678402674913
0,0.664797783,20250904135758410,None,0,-3,1,-3,0,1,-2,1,1757008678410081624
0,0.664912701,20250904135758410,None,4,1,0,0,1,-3,-2,-4,1757008678410208463
0,0.68026042,20250904135758426,None,-5,-2,-1,-1,1,5,-3,0,1757008678425305604
0,0.680440426,20250904135758426,None,8,3,-1,-3,1,-13,-2,-2,1757008678425482511
0,0.687353372,20250904135758433,None,-2,0,1,1,-2,-1,3,1,1757008678432626247
0,0.687475443,20250904135758433,None,-1,-1,-2,-1,-1,2,1,-2,1757008678432791709
0,0.694987535,20250904135758440,None,-8,-2,0,-1,-1,1,-1,1,1757008678440271139
0,0.695131063,20250904135758440,None,0,1,1,0,1,6,2,0,1757008678440425395
0,0.709795236,20250904135758455,None,-3,-1,2,-3,0,-2,-2,-1,1757008678455125331
0,0.709896564,20250904135758455,None,-1,-3,-1,4,-1,-2,-5,-2,1757008678455257177
0,0.717268944,20250904135758463,None,3,-1,0,1,2,-2,3,2,1757008678462596893
0,0.717379093,20250904135758463,None,2,2,-3,-3,-3,0,-10,-1,1757008678462734699
0,0.732342005,20250904135758478,None,1,-3,3,0,1,-1,1,-3,1757008678477618217
0,0.732476234,20250904135758478,None,2,0,3,-4,-2,-3,0,2,1757008678477756261
0,0.739793777,20250904135758485,None,0,-2,-1,-2,-3,2,1,-3,1757008678485091924
0,0.740003347,20250904135758485,None,-7,-4,-2,0,-1,-2,-3,0,1757008678485221147
0,0.747298956,20250904135758493,None,-1,0,-1,-1,1,-1,-3,0,1757008678492582321
0,0.747415542,20250904135758493,None,-3,1,0,-1,1,2,-1,3,1757008678492724418
0,0.762621879,20250904135758508,None,-1,-1,-1,-2,-4,-2,1,-4,1757008678507678031
0,0.762789488,20250904135758508,None,-2,0,-3,-2,-1,-5,-5,1,1757008678508040904
0,0.769537449,20250904135758515,None,-1,-1,-1,-2,-2,-3,-3,-4,1757008678515084505
0,0.769617081,20250904135758515,None,-2,-1,-4,-2,0,-4,1,-4,1757008678515208005
0,0.77714014,20250904135758522,None,0,0,-1,-1,-2,1,-1,0,1757008678522639036
0,0.777235269,20250904135758522,None,-3,-1,-1,-4,-2,3,-3,-3,1757008678522779703
0,0.792157173,20250904135758537,None,1,1,-2,3,0,2,-3,-1,1757008678537617444
0,0.792240143,20250904135758537,None,-1,-2,-2,-2,-1,-1,2,0,1757008678537778139
0,0.799520969,20250904135758545,None,-7,-1,1,-1,-1,2,4,2,1757008678545055627
0,0.799602032,20250904135758545,None,0,-1,-1,-2,2,4,-1,1,1757008678545186996
0,0.807078838,20250904135758552,None,2,2,-4,1,1,-9,-2,-1,1757008678552593469
0,0.807154655,20250904135758552,None,-1,-3,0,0,1,-3,-3,0,1757008678552752733
0,0.822163105,20250904135758567,None,-4,-3,-1,-3,-3,1,-3,-4,1757008678567660808
0,0.822322607,20250904135758568,None,-4,-3,0,1,-1,3,-1,1,1757008678567924499
0,0.830149412,20250904135758575,None,-2,-2,-4,-3,1,-10,-2,-4,1757008678575329065
0,0.830324411,20250904135758576,None,-2,-2,-1,-2,-1,-1,-2,1,1757008678575514316
0,0.837431192,20250904135758583,None,3,-2,-1,-3,-1,-1,0,1,1757008678582765340
0,0.837545633,20250904135758583,None,0,1,-4,0,-2,2,-1,2,1757008678582947015
0,0.851867676,20250904135758597,None,-1,5,0,4,-2,-2,-5,0,1757008678597453594
0,0.851918697,20250904135758597,None,-10,-2,-4,-2,0,2,-1,-2,1757008678597575187
0,0.859219551,20250904135758604,None,3,1,-3,-2,0,3,-4,3,1757008678604837179
0,0.859250069,20250904135758604,None,0,-2,1,0,-2,-1,3,-1,1757008678604919433
0,0.866813898,20250904135758612,None,1,-2,1,-1,-1,-5,-3,1,1757008678612435817
0,0.866840601,20250904135758612,None,-4,-1,-2,4,0,0,3,-1,1757008678612514972
0,0.882426023,20250904135758628,None,-1,0,1,-3,2,3,-1,-1,1757008678627697944
0,0.882621288,20250904135758628,None,0,0,-1,-1,-3,-6,-4,-4,1757008678628012657
0,0.890066862,20250904135758635,None,-2,2,-2,0,-1,-1,1,-2,1757008678635317087
0,0.890153169,20250904135758635,None,-4,-1,0,0,1,2,0,2,1757008678635496139
0,0.897395134,20250904135758643,None,-2,0,-2,-2,-1,0,1,1,1757008678642589330
0,0.897577047,20250904135758643,None,-8,-2,0,-1,5,-2,0,-1,1757008678642713308
0,0.912835359,20250904135758658,None,5,-1,-1,-2,-6,0,4,-1,1757008678657775402
0,0.913116932,20250904135758658,None,-8,-1,-3,-3,-1,-3,-9,3,1757008678657977819
0,0.919901848,20250904135758665,None,3,-2,2,5,0,-5,-6,-3,1757008678665167808
0,0.920042515,20250904135758665,None,-2,-2,0,0,1,2,-2,1,1757008678665354251
0,0.927721023,20250904135758673,None,-6,0,0,-3,-3,-6,1,0,1757008678672801494
0,0.927903414,20250904135758673,None,0,-1,0,1,-1,4,5,3,1757008678672995567
0,0.942929029,20250904135758688,None,0,-1,0,-2,-1,-2,-5,-5,1757008678687944173
0,0.943160295,20250904135758688,None,4,-4,-4,-2,-3,0,4,0,1757008678688155412
0,0.950153112,20250904135758695,None,-2,0,-1,1,-1,4,-4,-1,1757008678695327997
0,0.950314998,20250904135758696,None,1,0,0,1,-3,1,0,-1,1757008678695502519
0,0.95795536,20250904135758703,None,-2,-3,-2,-4,0,1,-3,0,1757008678702921390
0,0.958174705,20250904135758703,None,1,1,-2,0,1,-6,0,-1,1757008678703140020
0,0.973268032,20250904135758719,None,2,-3,1,1,-2,2,1,-2,1757008678718057155
0,0.973595142,20250904135758719,None,-1,-3,-4,-4,-2,2,1,3,1757008678718312978
0,0.98012352,20250904135758725,None,-1,2,-2,0,0,-1,-1,0,1757008678725275278
0,0.980285644,20250904135758726,None,-2,0,2,2,0,2,0,2,1757008678725466012
0,0.987986326,20250904135758733,None,-4,0,0,0,-1,-1,-1,-3,1757008678732972383
0,0.988173246,20250904135758733,None,4,2,-1,-3,-1,2,1,-2,1757008678733181715
0,1.002937794,20250904135758748,None,0,1,0,-3,0,-1,-2,0,1757008678748020648
0,1.003132582,20250904135758748,None,-1,-3,0,0,1,0,-1,1,1757008678748270511
0,1.009834051,20250904135758755,None,-1,-2,2,1,-2,-1,-1,1,1757008678755094051
0,1.009997845,20250904135758755,None,-5,-2,-1,0,-3,-7,0,-3,1757008678755250930
0,1.017266512,20250904135758763,None,-1,1,-3,-1,-1,-5,-4,-2,1757008678762579917
0,1.017462492,20250904135758763,None,-1,-3,-1,-1,0,4,-1,-3,1757008678762687444
0,1.032492161,20250904135758778,None,-3,3,-1,-2,0,5,2,0,1757008678777652025
0,1.032743931,20250904135758778,None,-7,-1,2,-3,0,-1,-4,-2,1757008678777806282
0,1.039822817,20250904135758785,None,6,3,1,-1,1,2,-2,-1,1757008678785090446
0,1.040040254,20250904135758785,None,-2,-1,-4,-2,-2,-2,-2,-2,1757008678785196542
0,1.047479391,20250904135758793,None,-5,-3,1,1,-2,-2,3,0,1757008678792597532
0,1.04766798,20250904135758793,None,1,1,-2,-4,1,1,2,-2,1757008678792745113
0,1.062995911,20250904135758808,None,1,1,0,1,-1,-4,-8,0,1757008678807817697
0,1.063249111,20250904135758808,None,1,2,-2,1,1,0,-1,0,1757008678807965993
0,1.069835424,20250904135758815,None,-3,-3,0,1,0,3,2,-3,1757008678815028190
0,1.070002317,20250904135758815,None,-2,-5,-3,-1,0,3,1,1,1757008678815123081
0,1.077381372,20250904135758823,None,0,-1,-2,-1,0,0,-2,1,1757008678822672843
0,1.077522278,20250904135758823,None,-2,0,-2,-2,-4,-1,-5,0,1757008678822809696
0,1.092852831,20250904135758838,None,-3,-5,-1,-2,-2,0,0,-4,1757008678837849617
0,1.093045711,20250904135758838,None,4,-1,0,-1,0,-2,-1,-3,1757008678838041305
0,1.099921226,20250904135758845,None,1,-1,0,0,2,-1,-2,-1,1757008678845154047
0,1.100050449,20250904135758845,None,-5,-3,-3,0,-2,4,-5,-3,1757008678845337390
0,1.10726428,20250904135758853,None,3,1,-2,-1,-1,-9,1,0,1757008678852596044
0,1.107370853,20250904135758853,None,-4,1,3,-2,0,-7,-3,-5,1757008678852725982
0,1.122443676,20250904135758868,None,-1,-2,-3,-1,-2,5,5,1,1757008678867772817
0,1.122606516,20250904135758868,None,-1,-3,0,3,2,4,4,2,1757008678867959499
0,1.129864931,20250904135758875,None,-4,-3,0,-1,-2,1,1,-2,1757008678875132560
0,1.129989385,20250904135758875,None,-2,-2,1,-3,2,-5,-5,5,1757008678875259637
0,1.137331486,20250904135758883,None,-2,3,0,0,1,3,-1,-1,1757008678882640838
0,1.137442112,20250904135758883,None,1,-5,-3,1,0,1,-4,-1,1757008678882776260
0,1.152375698,20250904135758898,None,-3,0,-1,-1,-1,0,4,-4,1757008678897622108
0,1.152538776,20250904135758898,None,-7,-1,0,0,-7,-5,0,1,1757008678897779464
0,1.159843445,20250904135758905,None,8,1,1,-2,0,-3,-1,-2,1757008678905101776
0,1.159965277,20250904135758905,None,3,2,0,0,2,-1,0,4,1757008678905253171
0,1.16724658,20250904135758912,None,-5,-2,2,3,-2,-2,-4,-6,1757008678912585020
0,1.16735816,20250904135758913,None,2,2,0,-2,0,0,2,-3,1757008678912709712
0,1.182573318,20250904135758928,None,-3,2,1,-1,-2,-2,-3,-4,1757008678927818775
0,1.18275857,20250904135758928,None,-2,-3,-3,0,1,-1,0,-2,1757008678927975654
0,1.189385891,20250904135758935,None,0,-2,-3,-1,1,2,-1,-1,1757008678934910774
0,1.189483881,20250904135758935,None,-2,1,-1,-2,0,0,-1,-1,1757008678935019016
0,1.197147369,20250904135758942,None,7,0,-2,-2,0,-3,3,2,1757008678942504644
0,1.197265386,20250904135758942,None,1,-2,-3,-1,-1,-2,-7,-3,1757008678942629337
0,1.212360144,20250904135758958,None,-3,-4,-1,-5,-4,5,5,-2,1757008678957565784
0,1.212525606,20250904135758958,None,0,-3,-1,-1,-3,-6,-8,-5,1757008678957718133
0,1.219629288,20250904135758965,None,2,-5,-2,-2,-1,5,1,1,1757008678964968204
0,1.219732046,20250904135758965,None,-1,2,-3,-2,-2,-10,-1,-1,1757008678965094089
0,1.227176428,20250904135758972,None,-3,4,-4,-3,-1,-1,-1,2,1757008678972485780
0,1.227303266,20250904135758973,None,2,-2,2,2,-2,1,1,0,1757008678972617387
0,1.242248773,20250904135758987,None,-1,-1,1,-2,1,-2,6,-1,1757008678987532377
0,1.242404938,20250904135758988,None,-3,-1,3,-1,0,-4,1,-1,1757008678987672090
0,1.249734878,20250904135758995,None,2,-3,-3,2,-4,6,-2,1,1757008678995009183
0,1.249847889,20250904135758995,None,-1,-1,1,3,-5,-11,-5,0,1757008678995143175
0,1.257165432,20250904135759002,None,1,0,2,-1,0,2,-2,-7,1757008679002495050
0,1.2573006150000001,20250904135759003,None,0,-6,0,-2,-3,-1,-3,-1,1757008679002624750
0,1.272181272,20250904135759017,None,1,-1,-2,-1,2,1,3,0,1757008679017480373
0,1.272299528,20250904135759018,None,5,-1,0,1,0,3,4,1,1757008679017618417
0,1.279629469,20250904135759025,None,0,0,-2,-2,-1,-1,-6,-2,1757008679024960756
0,1.279756069,20250904135759025,None,-1,-3,2,0,-4,-1,0,-1,1757008679025085449
0,1.287175178,20250904135759032,None,-5,0,0,2,-1,-1,-2,-1,1757008679032464981
0,1.287309646,20250904135759033,None,2,0,2,-1,-2,4,-5,-5,1757008679032597780
0,1.302771568,20250904135759048,None,-1,-1,-1,1,-4,-4,-2,0,1757008679047539710
0,1.302958965,20250904135759048,None,-1,0,-2,-1,2,-2,-1,-3,1757008679047685146
0,1.3098754879999999,20250904135759055,None,-2,0,-1,-3,1,0,2,1,1757008679054955482
0,1.310037613,20250904135759055,None,-3,-4,1,2,-1,-1,-1,0,1757008679055086374
0,1.31739068,20250904135759063,None,-3,1,0,1,0,-1,0,-1,1757008679062463998
0,1.317589521,20250904135759063,None,-4,1,-2,-3,0,-1,0,0,1757008679062573909
0,1.332361698,20250904135759078,None,-3,-2,1,-1,1,-3,1,-3,1757008679077447891
0,1.33258748,20250904135759078,None,2,0,-3,0,1,-4,1,0,1757008679077552318
0,1.339851141,20250904135759085,None,0,-2,-3,3,3,0,-3,-4,1757008679084924221
0,1.3400352,20250904135759085,None,2,-2,0,2,-2,5,3,-2,1757008679085021018
0,1.347258091,20250904135759093,None,-1,-2,-1,0,-2,0,-3,0,1757008679092435359
0,1.347402572,20250904135759093,None,-3,0,0,1,0,-5,-4,-1,1757008679092552900
0,1.362574577,20250904135759108,None,0,-3,-4,0,0,3,2,-2,1757008679107574939
0,1.362981319,20250904135759108,None,0,0,0,2,1,-2,-2,-1,1757008679108040809
0,1.3698196409999999,20250904135759115,None,-1,-3,-1,-3,1,-3,-9,-1,1757008679115130901
0,1.370177507,20250904135759115,None,0,0,1,-4,1,-1,12,2,1757008679115494728
0,1.37725997,20250904135759122,None,-1,0,-2,-2,-1,1,-1,0,1757008679122651576
0,1.377349615,20250904135759123,None,-2,-1,-2,-1,1,-3,1,-4,1757008679122830867
0,1.392205953,20250904135759137,None,8,3,0,1,-1,7,1,-1,1757008679137657165
0,1.392313242,20250904135759138,None,1,3,1,-3,-5,-9,-3,2,1757008679137845516
0,1.399658918,20250904135759145,None,-3,-1,0,0,-2,-6,-1,0,1757008679145145177
0,1.399770498,20250904135759145,None,-1,-2,-2,-1,-3,1,-1,-3,1757008679145368814
0,1.407137394,20250904135759152,None,-2,-1,-1,3,-1,2,1,-1,1757008679152646064
0,1.407341719,20250904135759153,None,2,1,-4,0,0,0,0,-2,1757008679152830362
0,1.42206192,20250904135759167,None,-1,0,-1,1,-2,-2,-1,0,1757008679167498588
0,1.422282934,20250904135759168,None,0,0,1,-4,-1,-3,2,-3,1757008679167687177
0,1.429524422,20250904135759175,None,-3,-4,-2,-1,0,-1,-2,-1,1757008679174972534
0,1.429690838,20250904135759175,None,-1,-3,-2,-1,1,0,0,-1,1757008679175174474
0,1.436994076,20250904135759182,None,0,0,4,-1,0,-3,-2,3,1757008679182528972
0,1.437081814,20250904135759182,None,-5,-1,-3,0,0,-3,-1,-2,1757008679182655334
0,1.451966286,20250904135759197,None,0,2,1,-2,0,-3,-1,6,1757008679197492837
0,1.452070951,20250904135759197,None,-3,-3,-4,0,-1,-2,0,-6,1757008679197617292
0,1.459348202,20250904135759205,None,1,0,-1,-1,-1,0,-1,4,1757008679204906702
0,1.459414005,20250904135759205,None,-3,-4,-2,-4,-2,-1,-1,-1,1757008679205032110
0,1.467042446,20250904135759212,None,-2,-2,-2,0,2,0,1,3,1757008679212521553
0,1.4671638009999999,20250904135759212,None,1,1,1,1,1,-1,0,0,1757008679212695598
0,1.481975078,20250904135759227,None,-12,-6,0,-1,-3,0,1,0,1757008679227416276
0,1.482141018,20250904135759227,None,3,2,1,0,-1,-2,-9,2,1757008679227535247
0,1.489342213,20250904135759235,None,1,-4,1,0,-3,0,5,-2,1757008679234897851
0,1.489425182,20250904135759235,None,-1,2,-2,1,-1,1,2,-2,1757008679235012531
0,1.496916771,20250904135759242,None,0,-5,-1,-3,0,-6,-1,1,1757008679242471694
0,1.496995449,20250904135759242,None,0,1,0,0,0,2,-4,-5,1757008679242585420
0,1.511896133,20250904135759257,None,-8,-1,2,-2,2,-4,-1,-2,1757008679257419109
0,1.511984348,20250904135759257,None,1,0,1,0,-1,3,0,0,1757008679257541418
0,1.5195293429999999,20250904135759265,None,1,-5,-1,1,-2,1,0,2,1757008679264904499
0,1.519758463,20250904135759265,None,-3,0,2,-1,0,-2,-1,-1,1757008679265015602
0,1.526932955,20250904135759272,None,-6,0,-1,1,-1,0,-1,-1,1757008679272427320
0,1.527049065,20250904135759272,None,0,-2,-3,2,0,6,0,0,1757008679272552967
0,1.541913032,20250904135759287,None,0,0,-1,-4,-1,-13,2,1,1757008679287400722
0,1.542027473,20250904135759287,None,-2,0,-2,-1,-1,-1,-1,-1,1757008679287509441
0,1.549431324,20250904135759295,None,1,-1,1,-2,1,3,-5,0,1757008679294954061
0,1.54957509,20250904135759295,None,-4,0,-1,0,-1,0,0,-1,1757008679295058965
0,1.556913137,20250904135759302,None,-1,-3,-1,0,-3,-1,2,0,1757008679302432060
0,1.55702424,20250904135759302,None,-4,0,-2,0,-4,-1,1,-3,1757008679302535057
0,1.572273016,20250904135759318,None,-1,-2,1,-2,-1,-8,0,-1,1757008679317643165
0,1.572440147,20250904135759318,None,-3,0,-2,-2,-2,3,-2,-5,1757008679317834377
0,1.5795645710000001,20250904135759325,None,2,2,-1,-6,1,-1,-5,-1,1757008679324981212
0,1.5798194410000002,20250904135759325,None,-3,-2,1,0,0,-1,1,2,1757008679325358390
0,1.587163925,20250904135759332,None,1,-3,-2,0,-6,1,-4,-4,1757008679332627058
0,1.587259054,20250904135759332,None,-1,2,-1,-1,0,0,-2,-1,1757008679332809686
0,1.602188349,20250904135759347,None,0,-1,-3,-3,-2,1,-4,-2,1757008679347619056
0,1.602305174,20250904135759348,None,1,0,0,1,-1,-1,2,8,1757008679347820043
0,1.609631061,20250904135759355,None,0,0,-2,-2,2,3,0,-10,1757008679355102539
0,1.6097118849999998,20250904135759355,None,1,2,0,-1,-2,5,0,2,1757008679355301141
0,1.6171894070000001,20250904135759362,None,-1,0,-2,0,0,-8,-3,0,1757008679362653255
0,1.617277622,20250904135759363,None,-1,-6,-2,-5,-4,3,-1,-2,1757008679362843275
0,1.6321349139999999,20250904135759377,None,-2,0,-2,1,1,2,0,3,1757008679377530574
0,1.632264137,20250904135759378,None,-2,-2,0,0,-1,-2,-1,0,1757008679377702951
0,1.639461517,20250904135759385,None,3,-1,-1,1,1,-1,-1,-1,1757008679384968280
0,1.63956809,20250904135759385,None,1,-2,-4,0,-1,-1,2,-5,1757008679385104417
0,1.647017717,20250904135759392,None,0,0,0,2,-2,-1,-2,-1,1757008679392478942
0,1.6471529010000001,20250904135759392,None,3,-2,-1,-1,-2,1,2,0,1757008679392623186
0,1.662102461,20250904135759407,None,-1,-4,-1,2,-3,-3,-2,-5,1757008679407492160
0,1.662243366,20250904135759407,None,-3,-4,-1,0,1,3,0,0,1757008679407640933
0,1.669399738,20250904135759415,None,-2,-2,-2,-1,-5,1,0,0,1757008679414942502
0,1.669492245,20250904135759415,None,1,-1,-1,-1,0,4,0,0,1757008679415056467
0,1.684521675,20250904135759430,None,-4,-2,-2,-2,0,-10,-2,0,1757008679429979801
0,1.684651136,20250904135759430,None,-3,-1,-1,-3,1,0,3,0,1757008679430115938
0,1.691898107,20250904135759437,None,0,2,-1,-4,1,6,2,-3,1757008679437465906
0,1.6919782159999999,20250904135759437,None,-6,0,-5,-3,0,-3,-8,-3,1757008679437575340
0,1.6994013780000001,20250904135759445,None,2,1,-2,1,1,-3,1,-2,1757008679444934606
0,1.6995210649999999,20250904135759445,None,1,2,-1,-3,-4,-8,-1,-1,1757008679445043563
0,1.714389086,20250904135759460,None,-1,4,0,-1,1,1,-6,0,1757008679459905624
0,1.7144858840000001,20250904135759460,None,0,-3,0,-1,0,3,16,4,1757008679460046529
0,1.7223286629999999,20250904135759468,None,-3,-3,3,4,-1,0,-3,-6,1757008679467481374
0,1.722493172,20250904135759468,None,-3,-1,-2,-1,-3,-2,-1,1,1757008679467580080
0,1.7296857829999999,20250904135759475,None,3,3,0,-3,0,-1,-6,-1,1757008679475086688
0,1.729846954,20250904135759475,None,-8,-5,-1,-1,1,1,4,-2,1757008679475251197
0,1.7449007029999999,20250904135759490,None,2,1,2,-1,0,-2,-9,1,1757008679490309953
0,1.745038986,20250904135759490,None,-4,-1,0,0,0,4,-1,-10,1757008679490489959
0,1.7522315979999998,20250904135759497,None,-1,3,-2,0,-2,-8,2,-3,1757008679497735261
0,1.752350807,20250904135759498,None,-5,-2,1,1,-1,3,2,0,1757008679497912645
0,1.7597887509999999,20250904135759505,None,2,1,1,-1,2,1,-1,-1,1757008679505274772
0,1.759878635,20250904135759505,None,-2,0,-2,-3,-3,-3,-1,0,1757008679505454778
0,1.774768829,20250904135759520,None,0,-1,-2,-2,-2,2,3,-3,1757008679520126581
0,1.7749133110000002,20250904135759520,None,2,-1,-2,-1,-1,-2,-5,3,1757008679520303010
0,1.7821521759999999,20250904135759527,None,-1,-1,-4,0,2,-2,-2,-3,1757008679527685880
0,1.782235145,20250904135759527,None,-5,-3,-2,2,1,1,-3,-3,1757008679527823686
0,1.7895617480000001,20250904135759535,None,-3,-3,-1,2,-1,-2,-1,-2,1757008679535020351
0,1.789702654,20250904135759535,None,0,-1,0,-3,2,1,-4,0,1757008679535148143
0,1.80469799,20250904135759550,None,1,0,0,-3,-4,0,0,0,1757008679550125122
0,1.80483365,20250904135759550,None,-3,-2,-3,-1,0,-2,1,-3,1757008679550289869
0,1.812191248,20250904135759557,None,-1,2,0,2,1,0,1,0,1757008679557563304
0,1.8123228550000001,20250904135759558,None,-2,-2,-2,-2,-2,0,1,-3,1757008679557705402
0,1.8196811670000002,20250904135759565,None,-3,1,-3,1,1,1,0,0,1757008679565080165
0,1.8199696539999999,20250904135759565,None,-4,-2,0,3,1,5,-1,-1,1757008679565211296
0,1.834933758,20250904135759580,None,2,0,1,1,-2,-13,-4,-1,1757008679580266714
0,1.835083246,20250904135759580,None,2,-3,-3,-2,0,2,1,0,1757008679580543756
0,1.8423445219999999,20250904135759588,None,-1,3,0,-4,-2,3,-3,-1,1757008679587695598
0,1.842729092,20250904135759588,None,1,-3,-2,0,-3,0,1,1,1757008679587884426
0,1.849969149,20250904135759595,None,0,4,-4,-3,4,5,-1,2,1757008679595259428
0,1.850133657,20250904135759595,None,-3,0,-1,-2,-2,0,0,0,1757008679595417737
0,1.864979267,20250904135759610,None,3,4,-1,3,-1,-1,1,5,1757008679610294342
0,1.865168095,20250904135759610,None,-6,-4,2,-3,1,-6,-1,1,1757008679610490560
0,1.8723695280000001,20250904135759618,None,-3,-3,2,-2,1,4,-5,-6,1757008679617728948
0,1.872581482,20250904135759618,None,-3,-1,-5,-3,-5,-3,-1,-3,1757008679617915153
0,1.879962206,20250904135759625,None,1,1,-2,1,-3,7,-4,2,1757008679625281572
0,1.880135059,20250904135759625,None,-1,-1,0,3,0,-10,2,4,1757008679625469207
0,1.895260095,20250904135759641,None,-2,0,-2,0,-1,2,0,-4,1757008679640623331
0,1.8954169749999998,20250904135759641,None,-2,-1,0,-1,-2,1,-3,-4,1757008679640799522
0,1.902398109,20250904135759648,None,1,2,-1,-1,0,-3,-8,-4,1757008679647781610
0,1.902606487,20250904135759648,None,1,-4,0,0,1,-4,8,0,1757008679647964715
0,1.909972191,20250904135759655,None,1,3,1,1,-2,1,2,3,1757008679655307292
0,1.910143137,20250904135759655,None,-2,-3,-3,-4,0,-4,-1,-1,1757008679655503511
0,1.9245331289999998,20250904135759670,None,2,3,-2,-1,1,1,2,3,1757008679670027256
0,1.924625635,20250904135759670,None,0,0,-3,-4,-1,-6,-7,-4,1757008679670144319
0,1.931950807,20250904135759677,None,0,-3,0,-4,-2,-4,-2,0,1757008679677421569
0,1.932065725,20250904135759677,None,0,0,0,1,-1,-1,1,-5,1757008679677533388
0,1.9394702910000001,20250904135759685,None,-3,1,-2,1,0,-1,-2,4,1757008679684851408
0,1.939971447,20250904135759685,None,-2,0,0,0,-3,1,-2,-2,1757008679684963226
0,1.954661369,20250904135759700,None,1,-4,-3,-1,0,4,2,-2,1757008679699962854
0,1.954853535,20250904135759700,None,-3,-2,-3,-4,0,0,-1,0,1757008679700114250
0,1.9620628359999999,20250904135759707,None,1,2,-2,0,-1,2,-1,2,1757008679707431316
0,1.962249279,20250904135759707,None,-1,0,-3,-1,-1,0,-7,1,1757008679707557201
0,1.969497442,20250904135759715,None,-1,-3,-1,3,1,-4,3,0,1757008679714887142
0,1.969712973,20250904135759715,None,0,-3,1,-1,-2,0,-1,-2,1757008679714998006
0,1.984732389,20250904135759730,None,-3,-2,-1,-2,-1,7,-1,-2,1757008679730076789
0,1.9849214549999998,20250904135759730,None,0,-1,-2,-3,-2,-12,1,0,1757008679730210065
0,1.992084265,20250904135759737,None,1,-3,-4,3,-2,-2,-2,1,1757008679737512588
0,1.992255449,20250904135759737,None,-5,-1,-2,2,0,-3,-1,0,1757008679737652778
0,1.999708176,20250904135759745,None,2,0,1,0,1,1,-2,0,1757008679744919300
0,2.000072718,20250904135759745,None,-10,-1,-2,-2,-3,7,-1,-4,1757008679745024919
0,2.014658451,20250904135759760,None,7,-1,1,-2,-1,2,1,1,1757008679759969949
0,2.014854669,20250904135759760,None,1,1,-1,-3,0,-9,0,1,1757008679760115385
0,2.021962881,20250904135759767,None,-3,-2,-1,-1,-2,1,-2,1,1757008679767383813
0,2.022131681,20250904135759767,None,-1,-1,2,-2,-1,2,3,-1,1757008679767490863
0,2.029618025,20250904135759775,None,0,-2,0,-2,-2,1,0,3,1757008679774949550
0,2.029901266,20250904135759775,None,-3,-4,-4,-5,-6,-4,-3,-2,1757008679775092840
0,2.044675112,20250904135759790,None,0,1,1,0,1,0,-2,4,1757008679789980173
0,2.045009374,20250904135759790,None,-1,4,-1,-2,1,-1,1,-4,1757008679790153980
0,2.052209377,20250904135759797,None,2,2,0,2,-1,1,-3,-3,1757008679797569990
0,2.052388906,20250904135759798,None,0,-1,-1,2,1,-4,-2,0,1757008679797698736
0,2.0595824719999998,20250904135759805,None,0,-1,0,-1,0,1,3,1,1757008679804944992
0,2.059747696,20250904135759805,None,-1,-3,0,-2,2,-3,-4,-1,1757008679805093288
0,2.074743509,20250904135759820,None,0,-1,0,-1,-1,1,-2,2,1757008679820019245
0,2.074930191,20250904135759820,None,-1,0,-2,2,-1,-3,-2,-3,1757008679820199966
0,2.082098961,20250904135759827,None,-5,2,-4,-2,0,-4,5,3,1757008679827474117
0,2.082283497,20250904135759828,None,-1,-1,-4,2,-2,-4,0,3,1757008679827606201
0,2.089751243,20250904135759835,None,-11,-4,-2,1,-2,-2,0,-6,1757008679834899425
0,2.090066194,20250904135759835,None,7,2,-1,-2,-1,0,-2,1,1757008679835012912
0,2.104581356,20250904135759850,None,-3,-1,-2,0,1,3,0,-2,1757008679849930763
0,2.104758978,20250904135759850,None,-3,-1,-4,2,3,-1,-4,0,1757008679850063323
0,2.11205697,20250904135759857,None,-2,-1,-1,-4,-7,-5,2,2,1757008679857424736
0,2.112241268,20250904135759857,None,0,-1,2,0,-1,-2,-1,-5,1757008679857541084
0,2.1195364,20250904135759865,None,-2,-2,-1,-1,0,1,-1,-2,1757008679864892482
0,2.119707346,20250904135759865,None,0,3,0,-1,1,1,-3,-8,1757008679864948749
0,2.134438515,20250904135759880,None,-1,0,0,0,1,-1,-3,-2,1757008679879867076
0,2.134815693,20250904135759880,None,8,0,-1,-4,2,5,0,2,1757008679879969596
0,2.142570495,20250904135759888,None,0,1,-1,0,0,-1,1,0,1757008679887552976
0,2.142814875,20250904135759888,None,3,-1,0,-1,0,-5,-1,1,1757008679887669563
0,2.149919748,20250904135759895,None,0,-1,2,-1,-3,-3,-2,-5,1757008679895012855
0,2.15011549,20250904135759895,None,1,0,-1,0,2,6,0,2,1757008679895112037
0,2.165251016,20250904135759911,None,-2,-1,-1,-2,-2,-3,-3,-5,1757008679910295009
0,2.1654284,20250904135759911,None,-1,-3,-3,-2,-3,0,0,1,1757008679910471916
0,2.173368692,20250904135759919,None,-3,-1,0,-2,1,-1,-3,-1,1757008679918015003
0,2.173597097,20250904135759919,None,1,2,0,1,-1,5,2,-2,1757008679918223619
0,2.180410862,20250904135759926,None,-5,-1,-1,-1,0,-6,-9,-1,1757008679925331830
0,2.180626154,20250904135759926,None,-9,-5,-4,0,-3,-3,-4,0,1757008679925531625
0,2.195159197,20250904135759940,None,0,2,-2,0,0,2,0,0,1757008679940262556
0,2.195334434,20250904135759941,None,0,2,-1,2,1,-1,1,-3,1757008679940703392
0,2.202362776,20250904135759948,None,-2,-2,2,0,-2,-4,1,-4,1757008679947597742
0,2.20247817,20250904135759948,None,0,0,-1,-2,2,2,1,-3,1757008679947728157
0,2.210480451,20250904135759956,None,-1,0,1,-4,-2,-1,-2,0,1757008679955407619
0,2.210675478,20250904135759956,None,1,3,1,0,-1,1,1,-2,1757008679955611705
0,2.225541353,20250904135759971,None,-1,1,-1,2,-1,3,-2,0,1757008679970410585
0,2.225753784,20250904135759971,None,0,-3,-3,-2,-1,2,-2,-4,1757008679970704317
0,2.232774734,20250904135759978,None,-1,0,1,-3,-2,-3,-5,0,1757008679977772951
0,2.232937574,20250904135759978,None,-4,-4,-3,-2,-1,2,3,-1,1757008679977957725
0,2.240645647,20250904135759986,None,2,-2,-2,-5,-5,0,-1,-2,1757008679985295057
0,2.240807295,20250904135759986,None,-3,2,-2,-1,-3,-5,-13,-5,1757008679985702037
0,2.255293608,20250904135800001,None,2,1,1,-6,-1,-2,7,-2,1757008680000324249
0,2.255479336,20250904135800001,None,-4,0,-4,2,0,2,-1,-1,1757008680000511407
0,2.262981415,20250904135800008,None,-3,-1,2,2,1,3,-1,-3,1757008680007816553
0,2.263172388,20250904135800008,None,3,2,-1,-1,-1,0,1,0,1757008680008023738
0,2.270853519,20250904135800016,None,2,-2,-3,-1,0,1,-4,0,1757008680015524387
0,2.271161079,20250904135800016,None,2,-2,-4,-1,-1,-5,-1,-2,1757008680015736103
0,2.285038233,20250904135800030,None,1,-4,2,0,-4,-4,-4,-2,1757008680030174255
0,2.285175562,20250904135800030,None,-5,1,-2,-1,-1,2,2,0,1757008680030447244
0,2.292140007,20250904135800037,None,-3,1,0,-4,0,-3,0,3,1757008680037546634
0,2.292245388,20250904135800037,None,-2,-3,0,1,1,6,-1,-1,1757008680037675619
0,2.299835205,20250904135800045,None,0,-4,-1,-2,-2,-2,-5,-1,1757008680044994592
0,2.300019979,20250904135800045,None,-7,-1,-3,3,-2,-5,-2,-1,1757008680045150756
0,2.314711809,20250904135800060,None,5,-2,-1,1,0,-4,-2,1,1757008680059921503
0,2.314952612,20250904135800060,None,2,-4,-1,2,0,3,4,0,1757008680060046911
0,2.322340011,20250904135800068,None,-2,-2,0,1,-1,-3,-4,-1,1757008680067703247
0,2.3225786680000002,20250904135800068,None,0,-1,-3,-2,0,1,-1,2,1757008680068049669
0,2.32979393,20250904135800075,None,-3,1,1,-3,-1,1,-1,1,1757008680075119018
0,2.329968214,20250904135800075,None,-1,-2,-3,2,-3,-1,-1,-1,1757008680075301647
0,2.345086336,20250904135800090,None,-1,0,-1,0,2,1,-2,-6,1757008680090138673
0,2.345239401,20250904135800090,None,-1,-2,1,0,-3,6,-1,0,1757008680090420722
0,2.352220058,20250904135800097,None,0,-1,-2,-1,0,-6,-7,-4,1757008680097575902
0,2.352308035,20250904135800098,None,3,1,-1,0,-1,0,2,0,1757008680097733736
0,2.359787941,20250904135800105,None,-10,0,-3,-1,-1,-2,3,-2,1757008680105111837
0,2.359849691,20250904135800105,None,3,-4,-2,-4,-1,-2,-2,0,1757008680105286121
0,2.374809503,20250904135800120,None,-1,3,2,-6,-3,3,0,0,1757008680120109081
0,2.374883175,20250904135800120,None,-1,1,-1,-1,0,-4,0,-2,1757008680120291948
0,2.382337808,20250904135800128,None,2,-2,-3,-2,-2,-6,-6,-2,1757008680127640247
0,2.382416725,20250904135800128,None,-1,-1,-2,-1,-1,0,0,-1,1757008680127804994
0,2.389818907,20250904135800135,None,-3,2,0,3,-2,3,-4,0,1757008680135111331
0,2.389882326,20250904135800135,None,-5,-3,3,1,1,1,2,1,1757008680135297060
0,2.40488553,20250904135800150,None,-2,-1,-2,0,3,0,-1,3,1757008680150139570
0,2.404952764,20250904135800150,None,5,-1,1,1,-1,-3,-3,-2,1757008680150371074
0,2.412894964,20250904135800158,None,1,-3,0,-4,-3,0,0,4,1757008680157622337
0,2.413127899,20250904135800158,None,-2,0,0,3,-1,-3,-4,1,1757008680157862901
0,2.41960001,20250904135800165,None,2,-3,-3,-3,0,1,0,-1,1757008680164907217
0,2.419796944,20250904135800165,None,1,-1,-2,-2,-2,-4,-4,-5,1757008680165024280
0,2.434550047,20250904135800180,None,-2,3,-1,2,-3,-1,-1,0,1757008680179906129
0,2.435108185,20250904135800180,None,2,-1,2,0,-1,1,0,2,1757008680180022478
0,2.442023039,20250904135800187,None,-3,-4,-3,0,0,-3,0,-2,1757008680187405109
0,2.44221425,20250904135800187,None,-3,-2,-1,-5,-2,0,0,-1,1757008680187510251
0,2.449488878,20250904135800195,None,-4,-3,-1,-4,0,3,-2,-3,1757008680194887399
0,2.450046301,20250904135800195,None,-4,-5,1,2,0,6,-1,-1,1757008680194992780
0,2.464733362,20250904135800210,None,5,1,-3,0,-1,-10,-4,-1,1757008680209926366
0,2.465065718,20250904135800210,None,-3,1,-2,-2,-1,-2,-3,-3,1757008680210034608
0,2.472006798,20250904135800217,None,-2,-1,-3,5,-4,-7,-5,0,1757008680217406749
0,2.472181082,20250904135800217,None,-1,-3,-1,-1,-4,-1,-2,4,1757008680217504739
0,2.479461193,20250904135800225,None,-3,-2,-2,-2,-1,2,1,3,1757008680224888563
0,2.479759693,20250904135800225,None,3,-3,-3,-1,-2,0,-2,1,1757008680224987745
0,2.494619131,20250904135800240,None,1,2,2,-1,3,-3,-2,-1,1757008680239917039
0,2.494762659,20250904135800240,None,-3,1,-1,-1,1,2,1,3,1757008680240044832
0,2.5020270350000002,20250904135800247,None,-1,-2,-3,-2,-1,-2,1,0,1757008680247396945
0,2.502201319,20250904135800247,None,2,2,0,-1,2,-4,-4,-3,1757008680247528076
0,2.509541511,20250904135800255,None,2,-1,-4,-3,1,2,0,-3,1757008680254917383
0,2.5097312929999998,20250904135800255,None,1,-1,-1,1,-2,1,0,-2,1757008680255024194
0,2.5246205330000002,20250904135800270,None,-1,-1,0,-2,0,1,-8,-4,1757008680269903421
0,2.524939775,20250904135800270,None,-1,1,-3,-5,-4,-4,3,0,1757008680270013809
0,2.532077312,20250904135800277,None,1,0,1,-4,1,-3,-1,-2,1757008680277441024
0,2.5322926040000002,20250904135800278,None,-4,2,-3,-1,-1,-3,-4,-4,1757008680277553081
0,2.539555549,20250904135800285,None,3,-2,-2,0,-2,4,-2,-2,1757008680284914731
0,2.539959669,20250904135800285,None,-6,-1,-2,-2,-2,-8,0,0,1757008680285019636
0,2.554559231,20250904135800300,None,8,3,-1,0,1,2,1,0,1757008680299901723
0,2.554761171,20250904135800300,None,-2,-2,2,-3,1,0,-6,-1,1757008680300012111
0,2.5622284410000002,20250904135800307,None,1,2,-4,-3,1,1,12,2,1757008680307591915
0,2.5624396799999998,20250904135800308,None,-3,-2,-3,-6,-4,-2,1,-4,1757008680307797431
0,2.569535732,20250904135800315,None,3,-1,-1,1,3,1,-1,1,1757008680314903259
0,2.5697128769999997,20250904135800315,None,-2,0,-1,-1,-1,-3,-2,0,1757008680315016508
0,2.58468318,20250904135800330,None,0,0,-3,-1,-4,0,0,-1,1757008680330009460
0,2.584873676,20250904135800330,None,-3,-5,1,-3,-1,2,-1,4,1757008680330172300
0,2.59238863,20250904135800338,None,-2,-2,3,0,1,2,-2,0,1757008680337552785
0,2.5925970080000003,20250904135800338,None,-2,-4,3,0,-3,-3,-3,-2,1757008680337717294
0,2.599593639,20250904135800345,None,4,0,1,-3,-1,5,-2,-4,1757008680344929933
0,2.599738359,20250904135800345,None,-2,-3,-1,0,-1,-2,-2,-1,1757008680345060825
0,2.614869833,20250904135800360,None,-1,0,2,-1,-1,-1,3,-1,1757008680360017061
0,2.615087986,20250904135800360,None,-4,1,1,1,0,3,-1,-3,1757008680360188484
0,2.622277021,20250904135800368,None,0,0,-4,-1,0,-2,2,1,1757008680367616653
0,2.622405529,20250904135800368,None,3,1,0,1,-2,-7,-3,-5,1757008680367784023
0,2.637206077,20250904135800382,None,-5,-3,-3,-2,1,6,5,-1,1757008680382553339
0,2.637393951,20250904135800383,None,6,-2,-2,0,-2,0,0,4,1757008680382705688
0,2.645089149,20250904135800390,None,-1,2,-4,0,0,3,-1,1,1757008680390408992
0,2.64522481,20250904135800390,None,-3,-2,-2,-1,-1,0,0,-2,1757008680390589952
0,2.6531171799999997,20250904135800398,None,-8,-3,-4,4,0,-1,0,-1,1757008680397970438
0,2.653347492,20250904135800399,None,5,1,-3,-2,1,-7,-1,-2,1757008680398171186
0,2.668113232,20250904135800413,None,-2,-1,-4,-3,-3,-5,0,-1,1757008680412910223
0,2.668325901,20250904135800414,None,-4,2,-1,-3,2,3,0,1,1757008680413131237
0,2.675709963,20250904135800421,None,2,-1,0,0,-2,-1,-3,0,1757008680420536041
0,2.6759078499999998,20250904135800421,None,-1,-1,-2,0,1,3,3,1,1757008680420740604
0,2.682568788,20250904135800428,None,-3,0,-1,0,1,3,-5,-1,1757008680427691698
0,2.682723284,20250904135800428,None,-2,1,1,-2,-3,-7,0,-2,1757008680427847862
0,2.697637319,20250904135800443,None,-3,-1,0,0,-2,0,-2,-5,1757008680442685365
0,2.698182821,20250904135800443,None,-2,1,-1,2,2,-2,-3,0,1757008680442857027
0,2.705143213,20250904135800450,None,-2,-1,-1,-1,-1,3,1,1,1757008680450181484
0,2.705344915,20250904135800451,None,2,1,0,0,-3,0,-5,-1,1757008680450378179
0,2.712461471,20250904135800458,None,-2,-1,0,-4,-1,-2,1,5,1757008680457541465
0,2.712669849,20250904135800458,None,0,-1,-4,-3,-2,-2,-5,-6,1757008680457660913
0,2.72744441,20250904135800473,None,13,1,-1,0,-1,0,7,1,1757008680472543478
0,2.727863073,20250904135800473,None,4,0,1,0,1,-5,1,2,1757008680472608089
0,2.734870672,20250904135800480,None,-5,-3,-1,-4,2,0,-6,-4,1757008680480017900
0,2.7350380420000002,20250904135800480,None,-2,-1,1,1,0,-9,11,3,1757008680480122327
0,2.74241662,20250904135800488,None,0,0,-1,2,-4,0,-3,-6,1757008680487520694
0,2.74262023,20250904135800488,None,0,-1,0,-1,0,-1,-1,0,1757008680487621307
0,2.757457018,20250904135800503,None,0,-2,-2,-5,1,1,-1,1,1757008680502569437
0,2.757675648,20250904135800503,None,-1,-2,-1,0,-2,-2,-1,-3,1757008680502669811
0,2.765176773,20250904135800510,None,0,2,0,1,2,-2,-1,-4,1757008680510171890
0,2.765354633,20250904135800511,None,1,-3,0,-3,1,-1,1,1,1757008680510380029
0,2.772435427,20250904135800518,None,-2,0,0,3,-2,-4,-2,1,1757008680517564535
0,2.77264905,20250904135800518,None,-3,-2,-3,0,-2,0,-3,-3,1757008680517666101
0,2.787438869,20250904135800533,None,-3,0,-2,1,-2,0,0,-5,1757008680532565593
0,2.7876591680000002,20250904135800533,None,-2,1,2,0,-1,-5,1,0,1757008680532681465
0,2.794854164,20250904135800540,None,-2,-1,-3,-2,-2,-1,-1,0,1757008680539984941
0,2.795013904,20250904135800540,None,-5,-4,-3,-1,-2,1,2,3,1757008680540128469
0,2.802180767,20250904135800547,None,4,-1,0,-2,-1,2,-3,-1,1757008680547428607
0,2.8022973540000002,20250904135800548,None,-1,1,-3,-3,-1,9,-2,-3,1757008680547536373
0,2.817448377,20250904135800563,None,-1,-2,-1,1,-2,-8,0,4,1757008680562560796
0,2.817649364,20250904135800563,None,-2,-3,-1,-3,1,-2,-2,-8,1757008680562669277
0,2.8250443929999998,20250904135800570,None,0,-2,0,4,1,2,3,-2,1757008680570057153
0,2.825251579,20250904135800570,None,-1,0,-1,0,1,3,2,0,1757008680570158958
0,2.8325600619999998,20250904135800578,None,-1,-2,-1,-3,0,-4,-4,0,1757008680577607870
0,2.832737684,20250904135800578,None,-3,1,-1,-2,1,-3,-3,-1,1757008680577734231
0,2.847485304,20250904135800593,None,7,1,4,-1,1,-2,3,6,1757008680592556953
0,2.847703218,20250904135800593,None,-2,-2,0,-1,-3,0,0,-2,1757008680592669725
0,2.854940176,20250904135800600,None,2,-2,0,1,-2,1,3,1,1757008680600026369
0,2.855120659,20250904135800600,None,0,1,-1,-1,1,3,-6,-3,1757008680600122928
0,2.862461567,20250904135800608,None,1,-2,-2,2,2,2,-4,0,1757008680607508420
0,2.862684488,20250904135800608,None,-2,-2,-2,-1,0,-12,-9,-4,1757008680607623577
0,2.877446651,20250904135800623,None,-4,-2,0,-1,-1,2,5,-3,1757008680622550725
0,2.877871513,20250904135800623,None,5,0,0,1,0,1,-11,-3,1757008680622647762
0,2.885241032,20250904135800630,None,-9,-2,-1,0,-2,3,9,3,1757008680630299568
0,2.885404825,20250904135800631,None,2,-1,-3,-1,-1,0,0,0,1757008680630469083
0,2.892529487,20250904135800638,None,0,0,0,-2,-4,-1,-4,-1,1757008680637690305
0,2.892682314,20250904135800638,None,3,-5,2,-3,-1,-6,-2,-6,1757008680637861490
0,2.90729332,20250904135800653,None,-2,-3,0,1,-2,-1,-3,-1,1757008680652591466
0,2.9074251650000003,20250904135800653,None,1,-2,-1,-2,4,-2,-1,0,1757008680652734756
0,2.9146950240000002,20250904135800660,None,-3,1,-1,-3,-6,0,0,-3,1757008680660020112
0,2.9147963519999998,20250904135800660,None,-2,-1,-2,2,1,10,-1,-2,1757008680660145998
0,2.922148943,20250904135800667,None,-1,0,-2,1,-4,-13,0,-5,1757008680667524814
0,2.922262668,20250904135800667,None,-2,-1,4,1,-2,0,-3,0,1757008680667638301
0,2.937244654,20250904135800682,None,2,1,-1,0,-2,1,-6,1,1757008680682595014
0,2.9373614789999998,20250904135800683,None,2,-1,-1,-2,2,1,2,-2,1757008680682724237
0,2.945070743,20250904135800690,None,3,2,0,1,-3,-2,-2,0,1757008680690094232
0,2.9452550410000002,20250904135800690,None,-3,0,2,-1,-1,0,-1,-4,1757008680690249204
0,2.952415228,20250904135800698,None,-3,0,-4,-2,-1,-4,-4,0,1757008680697545289
0,2.952615499,20250904135800698,None,0,2,1,1,-3,-4,-4,1,1757008680697642326
0,2.967403412,20250904135800713,None,-1,-3,-1,1,-1,2,3,3,1757008680712520360
0,2.967633009,20250904135800713,None,1,-3,-2,-5,0,3,0,-1,1757008680712616682
0,2.974999666,20250904135800720,None,-15,-3,-2,1,-3,-7,-12,-2,1757008680720058441
0,2.9751863480000003,20250904135800720,None,6,3,1,2,-1,-5,-3,-3,1757008680720172643
0,2.982345819,20250904135800728,None,3,-2,-3,0,0,1,2,-1,1757008680727487564
0,2.98254466,20250904135800728,None,6,-1,-1,-4,0,-1,4,1,1757008680727586746
0,2.99743247,20250904135800743,None,-6,-3,0,3,1,5,-2,-5,1757008680742551803
0,2.997678041,20250904135800743,None,-1,-3,-4,-1,-1,-12,-1,0,1757008680742655754
0,3.004838467,20250904135800750,None,0,1,-1,-2,-3,-2,0,-1,1757008680750057935
0,3.004980802,20250904135800750,None,-8,-2,1,-6,-1,0,-6,-3,1757008680750158548
0,3.012525797,20250904135800758,None,6,3,1,-1,0,-2,-3,2,1757008680757781028
0,3.012605429,20250904135800758,None,-1,1,-2,0,3,-1,-2,-2,1757008680757973432
0,3.027693748,20250904135800773,None,-3,-1,-3,-3,-2,-7,-4,0,1757008680772694587
0,3.027913332,20250904135800773,None,-2,-3,-1,-3,-1,1,-10,-1,1757008680772866964
0,3.034909725,20250904135800780,None,1,-6,-1,0,-1,1,12,1,1757008680780010223
0,3.035071134,20250904135800780,None,-1,-1,0,-2,0,-4,-4,1,1757008680780115127
0,3.042312145,20250904135800788,None,-1,-1,2,-2,-4,-3,-1,-3,1757008680787497997
0,3.042472362,20250904135800788,None,0,-4,2,0,-3,4,-2,-1,1757008680787591695
0,3.057456016,20250904135800803,None,-1,0,-5,2,2,-6,-3,-3,1757008680802552223
0,3.057677269,20250904135800803,None,0,2,-3,-5,-2,-2,1,0,1757008680802649974
0,3.065132141,20250904135800810,None,-1,-4,-1,-2,-1,2,1,-5,1757008680810286283
0,3.065280199,20250904135800811,None,-1,-1,0,-1,0,2,1,3,1757008680810447931
0,3.072955608,20250904135800818,None,0,1,2,1,-1,-7,-3,2,1757008680817918062
0,3.073119163,20250904135800818,None,-8,-1,0,-1,-3,2,-2,-4,1757008680818102836
0,3.0880301,20250904135800833,None,4,1,-2,4,1,1,1,1,1757008680832939147
0,3.088226318,20250904135800833,None,0,1,-3,0,1,-1,2,-1,1757008680833138227
0,3.095631599,20250904135800841,None,0,0,0,3,-1,-2,0,-3,1757008680840384006
0,3.095879316,20250904135800841,None,-3,-3,-2,-3,0,-4,-1,2,1757008680840603828
0,3.102922439,20250904135800848,None,-1,0,-2,1,2,1,2,-2,1757008680847813606
0,3.103122949,20250904135800848,None,-2,1,0,-1,2,4,0,-1,1757008680848024606
0,3.118076801,20250904135800863,None,-2,-2,1,-6,1,0,-4,1,1757008680862839221
0,3.118308782,20250904135800864,None,1,-5,-2,1,0,-1,1,-1,1757008680863054990
0,3.125640392,20250904135800871,None,-1,1,-1,1,0,-2,0,0,1757008680870505332
0,3.125811338,20250904135800871,None,-3,2,-3,-3,-2,-10,-2,-2,1757008680870703935
0,3.132884264,20250904135800878,None,-2,-5,0,0,-2,3,1,0,1757008680877728939
0,3.133072853,20250904135800878,None,-9,0,0,1,-2,-2,-12,-3,1757008680877945423
0,3.148083925,20250904135800893,None,4,1,-5,-2,-2,2,1,0,1757008680892859697
0,3.148303747,20250904135800894,None,1,-2,-1,0,-1,2,-1,1,1757008680893095970
0,3.155567646,20250904135800901,None,-1,-1,-1,-1,-1,-1,-3,-1,1757008680900479555
0,3.155794382,20250904135800901,None,-6,-5,0,-5,-2,1,0,2,1757008680900674581
0,3.162988663,20250904135800908,None,5,0,-4,-3,-2,1,0,-4,1757008680907836437
0,3.163174867,20250904135800908,None,-3,-3,-2,0,0,4,2,-2,1757008680908051013
0,3.178213835,20250904135800923,None,-2,-3,0,2,-1,-10,-7,-1,1757008680922965049
0,3.178450823,20250904135800924,None,-1,-4,-1,0,0,0,4,-1,1757008680923202753
0,3.185489178,20250904135800931,None,1,0,-1,-3,-1,5,0,-2,1757008680930366039
0,3.185726404,20250904135800931,None,-2,-1,-1,-4,-2,-6,-2,-4,1757008680930569171
0,3.193190098,20250904135800938,None,0,0,0,-2,1,-7,-9,0,1757008680938003778
0,3.193388224,20250904135800939,None,-8,-2,-1,-4,-1,4,9,3,1757008680938256740
0,3.208262205,20250904135800954,None,4,-4,-2,-1,-3,-3,1,-1,1757008680952996492
0,3.208497047,20250904135800954,None,1,0,0,2,3,0,1,1,1757008680953260660
0,3.215286493,20250904135800961,None,-1,-1,-3,-2,1,-5,-3,0,1757008680960297107
0,3.215523958,20250904135800961,None,-2,-2,0,0,-5,2,-1,-3,1757008680960476875
0,3.222720384,20250904135800968,None,-2,-2,0,0,1,-1,-3,0,1757008680967671155
0,3.222911835,20250904135800968,None,-1,-1,-1,2,-1,-2,2,-1,1757008680967847108
0,3.237477302,20250904135800983,None,1,-4,-3,0,-1,-3,3,-3,1757008680982578516
0,3.2376828189999998,20250904135800983,None,3,3,4,-1,0,1,-6,-3,1757008680982708692
0,3.244921923,20250904135800990,None,-1,-2,-1,-1,-2,-3,4,-3,1757008680990097761
0,3.2460136410000002,20250904135800991,None,-2,0,1,2,1,1,-2,-1,1757008680990563154
0,3.252661943,20250904135800998,None,-2,0,-1,-1,2,-2,-3,0,1757008680997870683
0,3.252885342,20250904135800998,None,2,-1,-1,1,-1,-4,-2,2,1757008680998070001
0,3.267865181,20250904135801013,None,-2,0,1,-2,-1,1,1,2,1757008681012976408
0,3.268104076,20250904135801013,None,-6,-3,-2,-3,-1,2,2,4,1757008681013259887
0,3.275559664,20250904135801021,None,5,-1,-2,-3,-2,0,-1,0,1757008681020580530
0,3.275738239,20250904135801021,None,-3,0,-2,-3,-1,3,-1,-1,1757008681020784139
0,3.282350302,20250904135801028,None,7,-2,1,0,-8,-2,-6,2,1757008681027554035
0,3.282554626,20250904135801028,None,-1,-2,0,-1,-1,-6,-7,-2,1757008681027695655
0,3.297305822,20250904135801043,None,0,-1,2,-2,2,9,6,0,1757008681042529344
0,3.297450781,20250904135801043,None,-2,-1,-1,-2,-1,-6,-3,-3,1757008681042661428
0,3.305002928,20250904135801050,None,-7,-3,-1,0,1,1,-2,-1,1757008681050094127
0,3.305203915,20250904135801050,None,10,1,-1,1,0,-1,-2,0,1757008681050267457
0,3.312443495,20250904135801058,None,1,1,1,3,0,-3,1,0,1757008681057667732
0,3.312690258,20250904135801058,None,-1,-2,-4,1,0,-1,2,-1,1757008681057843923
0,3.327550411,20250904135801073,None,0,0,0,0,-2,1,-2,-3,1757008681072576522
0,3.327750921,20250904135801073,None,-2,1,-2,-2,-2,-5,-7,0,1757008681072713375
0,3.334931612,20250904135801080,None,1,0,-2,0,-3,-3,6,3,1757008681080027341
0,3.335095405,20250904135801080,None,-1,-1,0,-3,-1,-3,0,-4,1757008681080133199
0,3.342344284,20250904135801088,None,-1,-2,-3,-1,0,1,-6,-1,1757008681087507724
0,3.342554808,20250904135801088,None,-2,-1,-2,-1,0,1,2,1,1757008681087604761
0,3.357490778,20250904135801103,None,-1,0,2,1,2,1,-11,-3,1757008681102568864
0,3.357701301,20250904135801103,None,3,1,0,4,-1,3,12,1,1757008681102676630
0,3.365056753,20250904135801110,None,-4,-1,-2,-1,-6,-2,0,-1,1757008681110123157
0,3.365244627,20250904135801110,None,2,2,-3,-4,-2,-1,-3,0,1757008681110256671
0,3.372431278,20250904135801118,None,1,1,-3,0,-1,0,-4,1,1757008681117554664
0,3.372633219,20250904135801118,None,0,-1,-3,1,-2,-7,-2,4,1757008681117672681
0,3.386934757,20250904135801132,None,-2,1,-2,-2,-2,-2,0,-3,1757008681132391929
0,3.387046337,20250904135801132,None,-3,2,-3,0,-5,1,2,-2,1757008681132521390
0,3.39438343,20250904135801140,None,1,-1,-2,-4,0,1,-2,-1,1757008681139922142
0,3.394665003,20250904135801140,None,1,0,1,-1,2,-3,0,7,1757008681140032529
0,3.401985168,20250904135801147,None,-5,-2,-3,2,1,-8,-1,-3,1757008681147392988
0,3.40211916,20250904135801147,None,-2,0,-2,-3,-2,0,0,-4,1757008681147527456
0,3.417206287,20250904135801162,None,3,-1,1,-4,-2,3,6,0,1757008681162453413
0,3.417440176,20250904135801163,None,-8,-2,-3,-1,2,-3,-3,-2,1757008681162583827
0,3.425077915,20250904135801170,None,6,1,-2,-5,-3,0,2,2,1757008681170175313
0,3.42528224,20250904135801171,None,1,0,0,1,-2,6,1,4,1757008681170391798
0,3.432360649,20250904135801178,None,-3,0,1,3,0,-1,3,2,1757008681177620649
0,3.432620048,20250904135801178,None,-7,-5,-1,0,-3,-10,-7,-2,1757008681177806615
0,3.44762826,20250904135801193,None,8,1,2,0,-1,-1,-6,1,1757008681192765951
0,3.447796821,20250904135801193,None,-3,-1,-1,1,1,2,1,-2,1757008681192947864
0,3.45525527,20250904135801201,None,2,-2,-2,-5,0,1,1,1,1757008681200279474
0,3.455436706,20250904135801201,None,3,1,-2,0,2,4,0,-2,1757008681200457572
0,3.46255207,20250904135801208,None,-3,-1,1,0,1,-4,-2,-3,1757008681207612991
0,3.462699652,20250904135801208,None,-2,0,-2,0,-1,1,1,2,1757008681207767248
0,3.477437734,20250904135801223,None,-2,-2,-2,-2,1,4,0,-2,1757008681222540616
0,3.477668762,20250904135801223,None,1,-2,0,-5,0,-2,-2,0,1757008681222648620
0,3.484960317,20250904135801230,None,2,-3,0,-1,2,-1,5,-1,1757008681230042457
0,3.485126257,20250904135801230,None,-3,-1,0,-1,2,-1,2,0,1757008681230139970
0,3.492414713,20250904135801238,None,-1,2,-1,0,-3,-2,-6,-4,1757008681237541675
0,3.492613077,20250904135801238,None,-1,-3,-1,0,-2,-1,0,-2,1757008681237635374
0,3.507441044,20250904135801253,None,1,-3,-1,2,-2,0,3,-1,1757008681252545356
0,3.507655144,20250904135801253,None,-2,1,-2,2,-2,0,-3,-3,1757008681252642393
0,3.51509881,20250904135801260,None,-1,-1,0,1,-3,-1,2,1,1757008681260148286
0,3.515231848,20250904135801260,None,-8,-1,-2,-1,-2,-2,-8,0,1757008681260343790
0,3.5226368900000002,20250904135801268,None,5,2,-2,-1,0,0,6,-3,1757008681267714738
0,3.522780418,20250904135801268,None,0,1,1,0,0,-6,-3,-3,1757008681267891645
0,3.537704944,20250904135801283,None,0,1,-2,-1,-3,0,-1,2,1757008681282678604
0,3.537898302,20250904135801283,None,-1,-1,1,1,-1,-2,-3,0,1757008681282849550
0,3.544993162,20250904135801290,None,0,1,0,-2,-1,6,0,-1,1757008681290053844
0,3.545171976,20250904135801290,None,-4,-5,0,-5,-3,-7,-1,0,1757008681290160417
0,3.560005188,20250904135801305,None,-2,-1,-4,0,-1,3,2,2,1757008681305049896
0,3.560183763,20250904135801305,None,-3,0,1,-3,2,-2,-1,-4,1757008681305165290
0,3.567287445,20250904135801313,None,2,-3,0,-2,-1,-1,-3,2,1757008681312463283
0,3.567433596,20250904135801313,None,-1,-3,2,-1,-2,2,3,1,1757008681312556266
0,3.5750007630000002,20250904135801320,None,-1,-4,-3,1,-1,-4,-3,0,1757008681320052385
0,3.5752024650000003,20250904135801320,None,1,0,1,-2,1,0,2,0,1757008681320158481
0,3.589985609,20250904135801335,None,-4,-3,-2,0,0,2,2,-1,1757008681335055112
0,3.590164184,20250904135801335,None,-4,0,-4,-2,3,-3,-6,-3,1757008681335149526
0,3.597712755,20250904135801343,None,-4,-1,-3,1,-5,-3,2,0,1757008681342703342
0,3.597886324,20250904135801343,None,4,-2,0,0,-2,-2,0,0,1757008681342891931
0,3.6049184800000003,20250904135801350,None,-1,-3,-4,-6,2,0,-1,2,1757008681350007295
0,3.6051070689999998,20250904135801350,None,-3,-4,0,-3,-2,1,-1,-6,1757008681350100278
0,3.620289564,20250904135801366,None,-2,2,0,1,0,-2,-4,-4,1757008681365300178
0,3.620466709,20250904135801366,None,-1,-4,-1,1,1,3,2,-1,1757008681365487337
0,3.627720833,20250904135801373,None,-1,1,-2,-6,-10,-2,-4,-2,1757008681372744560
0,3.62788558,20250904135801373,None,-15,-6,0,-1,-2,0,5,5,1757008681372918605
0,3.635249376,20250904135801381,None,16,0,1,-2,3,1,0,1,1757008681380278825
0,3.6354291439999997,20250904135801381,None,2,1,-2,1,0,-6,-2,-1,1757008681380469560
0,3.65005064,20250904135801395,None,-1,2,0,1,1,0,-1,-1,1757008681395124197
0,3.650212765,20250904135801395,None,-1,-2,0,-2,-3,1,0,0,1757008681395279169
0,3.657979727,20250904135801403,None,-3,0,-3,0,-1,1,0,-1,1757008681402762651
0,3.6582210059999998,20250904135801403,None,0,0,3,0,-1,-1,-4,4,1757008681402956724
0,3.6652591230000002,20250904135801411,None,-1,-4,0,-1,0,-1,-5,-3,1757008681410305500
0,3.665424108,20250904135801411,None,1,-3,3,0,-1,0,-1,-2,1757008681410484075
0,3.680263281,20250904135801426,None,-2,-2,-2,0,2,0,-4,-4,1757008681425281763
0,3.680429458,20250904135801426,None,-1,3,0,1,1,-1,-2,1,1757008681425640344
0,3.687952995,20250904135801433,None,0,-3,-1,0,-2,-7,-2,0,1757008681432789325
0,3.688191414,20250904135801433,None,0,-2,-3,0,-1,16,1,4,1757008681432975053
0,3.695636749,20250904135801441,None,0,-3,1,-2,-1,-12,0,1,1757008681440481424
0,3.695813894,20250904135801441,None,1,-1,1,-1,-4,-3,-2,-3,1757008681440686702
0,3.709965944,20250904135801455,None,-2,-3,1,-3,0,-3,-1,-2,1757008681455141782
0,3.710125446,20250904135801455,None,0,1,-3,0,0,3,2,-1,1757008681455260515
0,3.7175703049999997,20250904135801463,None,0,1,1,0,-1,-3,-1,3,1757008681462757587
0,3.717681169,20250904135801463,None,-1,0,-3,-3,2,0,-2,-4,1757008681462962388
0,3.7251319880000002,20250904135801470,None,-5,1,0,0,-3,-1,-4,-1,1757008681470367670
0,3.725236893,20250904135801470,None,-2,-2,-1,0,-3,-5,0,-1,1757008681470559597
0,3.740093708,20250904135801485,None,1,-1,3,0,1,2,2,-2,1757008681485296487
0,3.740201473,20250904135801485,None,0,-1,0,0,-1,2,1,0,1757008681485487699
0,3.747654438,20250904135801493,None,0,-3,-4,0,-1,-3,-5,-2,1757008681492688655
0,3.747820139,20250904135801493,None,2,1,0,-1,-6,1,-2,0,1757008681492856740
0,3.754988909,20250904135801500,None,-1,-1,1,-1,3,0,-1,-1,1757008681500287055
0,3.755061865,20250904135801500,None,-1,-1,0,0,-2,2,-2,2,1757008681500472784
0,3.770275354,20250904135801516,None,-5,-1,-2,-1,-1,2,3,-3,1757008681515299320
0,3.770452976,20250904135801516,None,1,-2,-1,-5,-2,-2,1,2,1757008681515480279
0,3.777778625,20250904135801523,None,-4,1,-2,-4,-2,-4,-6,-9,1757008681522793769
0,3.777977228,20250904135801523,None,0,0,-1,1,-1,1,3,2,1757008681522966623
0,3.78523159,20250904135801530,None,0,-2,2,3,-2,-3,3,-2,1757008681530361413
0,3.785376787,20250904135801531,None,3,-1,-3,-1,-2,0,0,0,1757008681530523300
0,3.800233602,20250904135801545,None,-7,0,0,-4,-1,-1,-2,0,1757008681545221090
0,3.800411224,20250904135801546,None,3,4,-3,1,1,1,-2,-1,1757008681545395135
0,3.807544231,20250904135801553,None,2,0,-1,-3,-2,0,-1,2,1757008681552666664
0,3.807721138,20250904135801553,None,2,-1,-2,-1,-4,-4,-3,-3,1757008681552836418
0,3.8149859900000003,20250904135801560,None,-1,1,-1,-1,3,-5,-4,-2,1757008681560145378
0,3.815131903,20250904135801560,None,1,-1,2,2,-1,-1,0,-4,1757008681560246229
0,3.830060243,20250904135801575,None,1,0,0,-3,0,2,0,-1,1757008681575143575
0,3.830366373,20250904135801576,None,-4,-2,-1,-2,-2,-5,-3,1,1757008681575256586
0,3.837578535,20250904135801583,None,-5,1,1,2,-1,6,0,-3,1757008681582657337
0,3.837787151,20250904135801583,None,1,3,-2,-6,0,5,-4,-3,1757008681582749366
0,3.8451697830000002,20250904135801590,None,-3,-3,-1,1,-4,-7,-3,-4,1757008681590165615
0,3.8453488350000002,20250904135801591,None,-4,-2,-1,2,-2,2,-3,0,1757008681590247869
0,3.8600516320000002,20250904135801605,None,-10,-2,-2,0,1,4,6,-1,1757008681605150699
0,3.860234737,20250904135801605,None,4,1,0,-1,-1,-3,-5,-1,1757008681605260610
0,3.867652893,20250904135801613,None,-6,-4,-3,1,1,-5,-3,0,1757008681612696647
0,3.867828607,20250904135801613,None,2,-1,1,-2,1,0,0,-2,1757008681612818479
0,3.8750076289999997,20250904135801620,None,-3,1,-4,-1,-1,0,-4,-4,1757008681620111703
0,3.875180006,20250904135801620,None,-7,-1,0,-3,0,-4,-2,-1,1757008681620213031
0,3.889953375,20250904135801635,None,1,1,-3,-1,0,0,2,-1,1757008681635116338
0,3.890135765,20250904135801635,None,2,1,-3,3,-2,-5,-8,-3,1757008681635217428
0,3.8973491190000003,20250904135801643,None,-3,-4,-1,0,-2,-1,1,-1,1757008681642631769
0,3.897472381,20250904135801643,None,-4,-4,-4,-1,-2,0,0,-3,1757008681642757177
0,3.9048335549999997,20250904135801650,None,0,-3,-5,-2,0,0,-1,-2,1757008681650188446
0,3.9049220079999998,20250904135801650,None,-1,-1,0,2,1,-1,4,1,1757008681650313377
0,3.920332193,20250904135801666,None,-8,-4,0,-1,-4,0,0,5,1757008681665477514
0,3.920470953,20250904135801666,None,3,-2,-1,0,-2,0,-2,0,1757008681665672779
0,3.92768693,20250904135801673,None,-3,0,-3,-3,1,-4,-3,-1,1757008681672936916
0,3.9277510639999997,20250904135801673,None,-4,-5,-2,-2,-2,-1,4,0,1757008681673127174
0,3.935292959,20250904135801681,None,5,-2,1,2,2,1,4,1,1757008681680581092
0,3.935405493,20250904135801681,None,-2,-2,-1,-4,2,0,-4,-5,1757008681680740833
0,3.949897766,20250904135801695,None,-3,1,-1,-3,-2,-10,-4,1,1757008681695169448
0,3.95001173,20250904135801695,None,-3,0,-2,1,1,-4,0,-3,1757008681695320606
0,3.95719552,20250904135801702,None,1,1,0,-1,-3,3,-1,1,1757008681702593803
0,3.9572796820000002,20250904135801703,None,-9,0,2,0,0,-4,-4,0,1757008681702706575
0,3.964784145,20250904135801710,None,9,4,2,-2,-2,-1,3,-1,1757008681710116147
0,3.964881182,20250904135801710,None,4,0,0,-2,-1,2,2,1,1757008681710244417
0,3.979934215,20250904135801725,None,2,0,1,2,2,1,-2,1,1757008681725186347
0,3.980060339,20250904135801725,None,-2,-1,-3,2,2,4,-5,-4,1757008681725347518
0,3.987211227,20250904135801732,None,-1,-4,-1,1,-3,-12,-3,-5,1757008681732640743
0,3.987298012,20250904135801733,None,1,-2,0,-2,-2,-4,-2,-1,1757008681732794046
0,3.994990826,20250904135801740,None,-4,-2,-1,0,-2,0,3,3,1757008681740477800
0,3.995322227,20250904135801741,None,-1,2,-2,0,-2,0,-12,-3,1757008681740828990
0,4.0101192,20250904135801755,None,-1,-1,0,-4,1,3,10,2,1757008681755377054
0,4.01025629,20250904135801755,None,-3,-4,-3,-3,1,0,-1,-1,1757008681755542278
0,4.017554283,20250904135801763,None,4,-1,2,0,-3,-2,-1,2,1757008681762799263
0,4.017654419,20250904135801763,None,2,0,0,-2,-3,0,0,-8,1757008681762978792
0,4.025141239,20250904135801770,None,-1,0,-2,-1,-1,-3,-5,-1,1757008681770418167
0,4.025220394,20250904135801770,None,-6,-5,-2,0,-2,-4,-4,-3,1757008681770602226
0,4.040217876,20250904135801785,None,-3,-4,0,-1,-1,0,1,-1,1757008681785392999
0,4.040338755,20250904135801786,None,1,1,-4,-2,-4,-2,1,-1,1757008681785574913
0,4.047783136,20250904135801793,None,-2,-2,0,-1,-2,-2,-1,0,1757008681792828321
0,4.047944784,20250904135801793,None,3,0,-1,-2,-1,2,2,0,1757008681792999744
0,4.055576801,20250904135801801,None,-9,-2,0,0,-1,-2,2,-4,1757008681800333738
0,4.055729151,20250904135801801,None,5,0,-1,-2,2,-7,-4,-4,1757008681800727605
0,4.070296526,20250904135801816,None,1,-2,-4,-2,-4,2,-5,-4,1757008681815380811
0,4.070460081,20250904135801816,None,1,-1,2,-1,-1,0,6,-1,1757008681815548181
0,4.07777524,20250904135801823,None,1,-1,-1,0,-2,5,2,0,1757008681822827816
0,4.077937364,20250904135801823,None,-3,-1,-1,-1,4,8,-2,2,1757008681823001623
0,4.085033655,20250904135801830,None,-4,-3,0,-2,0,-14,-5,0,1757008681830302715
0,4.085166693,20250904135801830,None,-3,-1,-3,1,-2,3,1,-2,1757008681830459833
0,4.100384235,20250904135801846,None,-1,-3,1,-1,0,3,3,3,1757008681845393419
0,4.100585461,20250904135801846,None,1,-3,-4,4,0,-4,-3,-4,1757008681845569372
0,4.107589006,20250904135801853,None,-2,-2,-1,0,-1,2,0,2,1757008681852850675
0,4.10773921,20250904135801853,None,-1,-3,-2,-4,-1,1,1,-3,1757008681853029489
0,4.1152246,20250904135801860,None,-1,-2,0,-3,-5,-6,-1,1,1757008681860361099
0,4.115400076,20250904135801861,None,-2,-5,-2,-1,-2,-2,-3,-5,1757008681860543966
0,4.130168199,20250904135801875,None,-1,1,-2,0,-1,0,-1,-1,1757008681875362396
0,4.130331755,20250904135801876,None,-2,0,-2,-2,-1,3,0,0,1757008681875543594
0,4.137293815,20250904135801883,None,1,-1,-2,3,-1,-6,-1,-3,1757008681882661581
0,4.13738513,20250904135801883,None,-3,-1,-3,-2,-2,0,1,3,1757008681882786750
0,4.144971132,20250904135801890,None,-2,-3,-2,-3,0,-1,-12,-6,1757008681890278816
0,4.145066976,20250904135801890,None,-3,-2,-2,-4,1,4,12,1,1757008681890399694
0,4.159758091,20250904135801905,None,6,0,-2,-1,1,0,-1,-1,1757008681905146121
0,4.159842729,20250904135801905,None,0,-1,-3,0,-2,-5,-5,0,1757008681905258178
0,4.167294979,20250904135801913,None,-3,-1,4,3,0,-2,-2,1,1757008681912674665
0,4.167382002,20250904135801913,None,0,2,0,-1,-1,4,1,1,1757008681912787437
0,4.174727201,20250904135801920,None,-4,-1,1,-2,-1,-13,-2,-2,1757008681920129299
0,4.174815655,20250904135801920,None,0,2,-4,-2,-1,1,0,-1,1757008681920247554
0,4.189774513,20250904135801935,None,-1,0,-2,-3,1,-2,-1,1,1757008681935140371
0,4.18987298,20250904135801935,None,-4,-3,-1,0,0,1,-1,-2,1757008681935256004
0,4.1972548960000005,20250904135801942,None,-8,0,2,-1,-1,2,0,-2,1757008681942622661
0,4.197341204,20250904135801943,None,5,1,-1,0,0,-4,-4,0,1757008681942738533
0,4.204758406,20250904135801950,None,-4,-4,-1,0,-2,11,1,-3,1757008681950105667
0,4.204858303,20250904135801950,None,2,-1,0,0,-3,-6,-4,-1,1757008681950219631
0,4.219830751,20250904135801965,None,-1,1,-1,1,-2,0,1,0,1757008681965167284
0,4.219932794,20250904135801965,None,-4,-2,1,-2,4,-4,3,0,1757008681965254306
0,4.227334976,20250904135801973,None,-4,-4,0,0,-4,3,0,-7,1757008681972670793
0,4.227434873,20250904135801973,None,1,1,-1,0,2,-3,1,2,1757008681972795963
0,4.234791756,20250904135801980,None,-1,-2,-1,0,-2,-2,-4,-2,1757008681980157852
0,4.234892368,20250904135801980,None,-3,-2,-1,-4,-1,-7,-2,-3,1757008681980254411
0,4.24981761,20250904135801995,None,0,-3,0,2,1,5,2,1,1757008681995148658
0,4.24992156,20250904135801995,None,3,-3,0,-2,0,2,3,4,1757008681995252370
0,4.257251024,20250904135802002,None,-2,1,-3,-1,-4,0,-3,-4,1757008682002612829
0,4.257341385,20250904135802003,None,-11,-2,-2,0,-3,-1,-5,-3,1757008682002683401
0,4.264800787,20250904135802010,None,7,2,-1,-1,0,3,1,2,1757008682010120391
0,4.264911651,20250904135802010,None,-4,-3,-3,1,0,-6,-1,-1,1757008682010245800
0,4.279914141,20250904135802025,None,0,-1,1,-1,1,-1,-5,1,1757008682025208950
0,4.280027866,20250904135802025,None,-3,-3,-3,1,1,3,-1,-1,1757008682025353908
0,4.287310362,20250904135802033,None,0,-6,-2,-1,0,9,4,-2,1757008682032658100
0,4.287424087,20250904135802033,None,1,-4,-2,-1,-2,-6,-4,0,1757008682032780170
0,4.294894457,20250904135802040,None,0,1,-2,-1,-1,-1,12,3,1757008682040184020
0,4.29501605,20250904135802040,None,1,-1,-1,-4,0,-1,-5,-1,1757008682040340185
0,4.309852362,20250904135802055,None,-1,-1,-4,-3,-3,0,2,1,1757008682055119752
0,4.309983253,20250904135802055,None,7,-1,-6,-1,-2,-1,1,-2,1757008682055249452
0,4.317165375,20250904135802062,None,3,-4,1,1,0,3,0,-3,1757008682062479972
0,4.317271471,20250904135802063,None,0,-1,-1,0,-3,6,0,0,1757008682062609910
0,4.324744224,20250904135802070,None,-4,-2,-1,-1,-5,-7,-1,-1,1757008682070059299
0,4.3248333930000005,20250904135802070,None,0,-1,-1,-1,2,1,-3,2,1757008682070175170
0,4.339785099,20250904135802085,None,-3,-2,3,-2,1,-2,4,-4,1757008682085096597
0,4.339937687,20250904135802085,None,3,-1,-2,3,0,2,-1,0,1757008682085212945
0,4.347234011,20250904135802092,None,-3,0,0,-1,-1,-3,1,1,1757008682092591285
0,4.347324848,20250904135802093,None,0,1,-3,0,1,-6,-1,-1,1757008682092708826
0,4.354726314,20250904135802100,None,1,1,-6,-4,2,4,-4,1,1757008682100082397
0,4.354821205,20250904135802100,None,4,2,-1,-4,-2,-2,2,4,1757008682100191831
0,4.36973834,20250904135802115,None,-5,-2,2,-3,-3,-5,0,-1,1757008682114995956
0,4.369870186,20250904135802115,None,5,4,-1,-1,2,-1,1,2,1757008682115130424
0,4.3772346970000005,20250904135802122,None,-3,-3,1,-3,-2,-1,-1,-6,1757008682122526645
0,4.377343893,20250904135802123,None,-2,-6,0,0,2,5,4,5,1757008682122654914
0,4.384799957,20250904135802130,None,-1,2,1,0,-3,-4,0,3,1757008682130052328
0,4.384932995,20250904135802130,None,0,-2,2,-1,-1,3,0,5,1757008682130194664
0,4.399517059,20250904135802145,None,-1,-1,1,-2,-3,-5,2,-7,1757008682144961357
0,4.3996322150000005,20250904135802145,None,-1,-1,-2,-1,1,-3,-4,0,1757008682145076990
0,4.407266378,20250904135802153,None,4,1,2,-2,0,5,-2,-2,1757008682152658939
0,4.407348156,20250904135802153,None,-2,2,-4,-1,0,-8,0,2,1757008682152838468
0,4.414958715,20250904135802160,None,1,-1,1,-5,-8,-1,-3,-3,1757008682160205841
0,4.415144682,20250904135802160,None,0,0,-1,-4,-1,1,2,1,1757008682160418748
0,4.429853678,20250904135802175,None,3,-3,1,2,0,0,0,0,1757008682175200700
0,4.429957867,20250904135802175,None,1,-2,2,1,-2,3,-1,-1,1757008682175517797
0,4.436971664,20250904135802182,None,-3,-1,1,-2,1,2,-4,-2,1757008682182507038
0,4.437049627,20250904135802182,None,7,3,0,-3,-3,-5,-3,0,1757008682182644367
0,4.444463968,20250904135802190,None,-2,-2,-3,-1,0,3,-2,-3,1757008682189989089
0,4.444546938,20250904135802190,None,-2,0,-2,1,-2,3,-5,2,1757008682190120220
0,4.459531546,20250904135802205,None,-9,0,-1,-3,0,-2,-10,-3,1757008682205046415
0,4.459599972,20250904135802205,None,7,-1,0,1,-3,-2,6,3,1757008682205169439
0,4.467023611,20250904135802212,None,-3,-3,0,-3,-1,1,0,-5,1757008682212531566
0,4.467104912,20250904135802212,None,-3,3,0,0,-1,2,-9,-5,1757008682212642908
0,4.474752903,20250904135802220,None,-3,0,-3,-2,0,-3,1,-2,1757008682219956398
0,4.474911451,20250904135802220,None,-1,-4,1,-1,0,-1,1,-1,1757008682220088481
0,4.489601135,20250904135802235,None,0,-3,-3,-1,0,2,3,1,1757008682234910726
0,4.489796638,20250904135802235,None,0,-1,0,2,1,-5,-2,0,1757008682235054731
0,4.49695611,20250904135802242,None,-2,-3,-3,3,0,0,2,6,1757008682242371559
0,4.497137546,20250904135802242,None,1,-2,0,0,0,2,-4,2,1757008682242499113
0,4.512327432,20250904135802258,None,-1,-3,-1,-3,-3,-2,1,-7,1757008682257610082
0,4.512528658,20250904135802258,None,-6,-1,1,-3,-1,-1,0,-2,1757008682257777690
0,4.519383192,20250904135802265,None,3,-1,-2,0,0,1,0,2,1757008682264909982
0,4.519466162,20250904135802265,None,9,1,-2,2,1,2,1,-1,1757008682265019893
0,4.5270316600000005,20250904135802272,None,-3,-1,1,0,1,-3,0,4,1757008682272541046
0,4.527118444,20250904135802272,None,-2,-2,1,0,0,-5,1,-1,1757008682272649288
0,4.542065382,20250904135802287,None,-2,-4,-2,-2,-2,-6,-3,-2,1757008682287487268
0,4.542179584,20250904135802287,None,-2,1,3,0,-1,4,-1,-2,1757008682287627458
0,4.549359083,20250904135802295,None,-2,-3,-4,0,2,9,1,-1,1757008682294900894
0,4.549432039,20250904135802295,None,-3,0,-3,-5,-9,-5,0,-5,1757008682295021057
0,4.556897879,20250904135802302,None,13,1,0,3,1,-5,-5,1,1757008682302423954
0,4.556980848,20250904135802302,None,0,-2,2,0,-5,-3,-2,-5,1757008682302536010
0,4.572099686,20250904135802317,None,4,0,-5,-3,0,-1,4,1,1757008682317501783
0,4.572237968,20250904135802317,None,-4,1,0,-1,1,2,3,1,1757008682317670106
0,4.579339981,20250904135802325,None,-1,1,-2,1,-1,-4,-4,-2,1757008682324868202
0,4.57941246,20250904135802325,None,0,-2,-3,-4,-3,-6,-6,0,1757008682324986219
0,4.586874962,20250904135802332,None,-2,0,1,0,2,-3,3,-1,1757008682332409143
0,4.586955786,20250904135802332,None,1,0,0,-1,-1,-2,2,-3,1757008682332521677
0,4.602220297,20250904135802347,None,-5,-7,0,0,-3,0,2,-1,1757008682347632884
0,4.602319717,20250904135802348,None,2,-2,0,-2,0,-2,1,-1,1757008682347823619
0,4.609606266,20250904135802355,None,-3,1,2,2,2,1,-3,-1,1757008682355087041
0,4.609682798,20250904135802355,None,-3,-3,-1,2,-1,-6,10,2,1757008682355296850
0,4.617233515,20250904135802362,None,2,-4,-5,-2,-1,-3,-1,3,1757008682362653017
0,4.617322922,20250904135802363,None,1,-1,-2,0,1,-2,-2,2,1757008682362829208
0,4.632185936,20250904135802377,None,-3,0,-1,-4,-3,-2,1,-6,1757008682377539157
0,4.6323678489999995,20250904135802378,None,-1,0,1,0,2,-3,-3,-6,1757008682377704143
0,4.639443874,20250904135802385,None,1,1,-1,-2,3,-1,-2,-1,1757008682384966850
0,4.639557123,20250904135802385,None,1,3,0,1,1,-2,-1,2,1757008682385093927
0,4.646936178,20250904135802392,None,-3,-1,1,-4,-2,-2,-9,-7,1757008682392443656
0,4.647036791,20250904135802392,None,3,-3,1,-4,-1,3,7,0,1757008682392583847
0,4.661916733,20250904135802407,None,-3,0,-5,2,0,4,-2,2,1757008682407441139
0,4.662012815,20250904135802407,None,-1,0,-3,-3,-4,-12,-2,0,1757008682407586812
0,4.6693549149999996,20250904135802415,None,-1,-1,0,2,-1,-5,-4,-2,1757008682414908170
0,4.669430971,20250904135802415,None,-8,0,0,0,1,1,0,0,1757008682415032625
0,4.676846981,20250904135802422,None,1,3,0,-1,3,3,-1,0,1757008682422415018
0,4.676922321,20250904135802422,None,-5,-3,-2,-3,-1,0,3,-4,1757008682422538518
0,4.691969156,20250904135802437,None,4,2,1,-3,-3,-6,0,-1,1757008682437513589
0,4.692056179,20250904135802437,None,1,2,0,1,-2,0,-1,-1,1757008682437649488
0,4.699321985,20250904135802445,None,-3,0,-2,1,-1,-3,2,1,1757008682444886207
0,4.699391842,20250904135802445,None,-1,1,0,-3,-2,-4,-2,-3,1757008682444990396
0,4.706930876,20250904135802452,None,-1,0,1,-1,1,2,0,-3,1757008682452440261
0,4.707020044,20250904135802452,None,0,1,-2,-1,-3,-3,4,-1,1757008682452563047
0,4.721873999,20250904135802467,None,1,2,2,-1,-1,-4,-8,-2,1757008682467406034
0,4.721971273,20250904135802467,None,-3,-4,-4,-2,-2,3,-2,1,1757008682467537403
0,4.729374647,20250904135802475,None,-4,-3,-1,1,0,-1,1,-2,1757008682474891424
0,4.729461908,20250904135802475,None,-4,2,0,-1,0,0,1,0,1757008682475009202
0,4.737067461,20250904135802482,None,2,-1,-1,-2,1,-3,-1,-1,1757008682482382535
0,4.737303257,20250904135802483,None,-2,0,3,-1,3,-4,-1,3,1757008682482502222
0,4.7521214480000005,20250904135802497,None,0,-2,-2,-6,-6,-1,-5,0,1757008682497447967
0,4.752348184,20250904135802498,None,-1,-2,1,-2,-2,0,-1,-7,1757008682497583150
0,4.759564876,20250904135802505,None,1,-1,-2,0,0,-2,-4,-4,1757008682504918336
0,4.759757757,20250904135802505,None,-3,-4,-1,-4,0,5,3,2,1757008682505025625
0,4.774877787,20250904135802520,None,2,-2,0,-5,2,-3,-3,3,1757008682519968032
0,4.77513814,20250904135802520,None,-6,-2,-2,-1,2,6,-1,1,1757008682520110607
0,4.782055378,20250904135802527,None,5,0,-1,0,-1,-14,-4,-3,1757008682527426004
0,4.782266855,20250904135802528,None,-2,1,4,1,-3,-5,-2,0,1757008682527545452
0,4.789620876,20250904135802535,None,-8,-5,-1,0,0,-2,-1,-1,1757008682534901857
0,4.789819717,20250904135802535,None,0,1,-1,0,1,7,4,-2,1757008682535108089
0,4.796954393,20250904135802542,None,-2,-3,-2,2,-1,-2,1,1,1757008682542349100
0,4.797076464,20250904135802542,None,-2,1,0,-5,-1,-2,8,0,1757008682542478561
0,4.812649727,20250904135802558,None,-1,1,-1,0,-2,-4,-2,-1,1757008682557719469
0,4.812857628,20250904135802558,None,1,0,-3,-1,3,2,3,-1,1757008682557912826
0,4.820031881,20250904135802565,None,-2,0,-3,-1,-4,0,0,0,1757008682565158367
0,4.8202281,20250904135802565,None,0,-1,-4,-1,0,-1,2,-3,1757008682565374374
0,4.827481508,20250904135802573,None,-2,-4,0,-1,2,-2,-3,2,1757008682572636604
0,4.8280375,20250904135802573,None,-1,-1,0,1,-1,-1,2,-2,1757008682572816610
0,4.842431307,20250904135802588,None,2,4,-1,-1,-2,-1,-4,-2,1757008682587591409
0,4.842644691,20250904135802588,None,-4,2,1,1,-1,-3,2,0,1757008682587790966
0,4.849945783,20250904135802595,None,-2,2,0,4,0,-5,-5,-3,1757008682595052003
0,4.850120544,20250904135802595,None,1,-3,-2,-3,1,3,5,3,1757008682595259666
0,4.857388258,20250904135802603,None,-9,0,-1,-4,-6,4,2,-4,1757008682602577686
0,4.857600689,20250904135802603,None,7,0,2,-1,-2,3,-6,2,1757008682602758884
0,4.872496605,20250904135802618,None,-1,1,-1,4,-2,-10,2,2,1757008682617634534
0,4.872727394,20250904135802618,None,-6,-3,-1,1,2,0,1,-3,1757008682617830038
0,4.879915953,20250904135802625,None,-1,1,0,-1,0,0,-1,-4,1757008682625113487
0,4.880130291,20250904135802625,None,-5,-1,-3,0,-3,1,0,-1,1757008682625295162
0,4.887474298,20250904135802633,None,1,-2,1,-2,-1,-5,-2,-4,1757008682632610082
0,4.887880802,20250904135802633,None,2,-4,0,-1,-3,2,1,2,1757008682632780551
0,4.902410507,20250904135802648,None,1,-1,-2,-2,1,6,1,1,1757008682647583246
0,4.902698755,20250904135802648,None,-3,-3,-2,-1,0,-5,0,-3,1757008682647757053
0,4.90990901,20250904135802655,None,-2,0,-2,2,-1,-6,-1,-3,1757008682655082464
0,4.910116434,20250904135802655,None,-3,-1,0,-2,-1,1,-1,-3,1757008682655281782
0,4.917268753,20250904135802663,None,-4,0,-1,1,0,0,-5,1,1757008682662584543
0,4.917450189,20250904135802663,None,0,0,1,1,-1,7,-2,0,1757008682662772655
0,4.932373524,20250904135802678,None,-2,-5,1,-2,-5,-9,0,2,1757008682677679777
0,4.9328250879999995,20250904135802678,None,0,0,2,1,-1,3,-1,-1,1757008682677876949
0,4.939830541,20250904135802685,None,-3,-5,-1,2,0,-1,-3,-4,1757008682685122251
0,4.940023184,20250904135802685,None,-9,0,-2,-4,0,-1,-4,-3,1757008682685304164
0,4.947255373,20250904135802693,None,4,-2,-3,2,0,-7,1,1,1757008682692591190
0,4.947425127,20250904135802693,None,0,0,0,0,-2,2,-1,0,1757008682692786216
0,4.9622714519999995,20250904135802708,None,1,1,-2,0,3,-2,1,-2,1757008682707621812
0,4.962456465,20250904135802708,None,1,-1,-1,1,-5,-4,-7,-2,1757008682707891941
0,4.969700813,20250904135802715,None,-2,-2,0,-2,-3,-1,-3,-1,1757008682715063810
0,4.96988821,20250904135802715,None,-3,-1,2,1,-4,0,1,-6,1757008682715293884
0,4.977288484,20250904135802723,None,-3,-2,0,1,-1,0,2,-1,1757008682722615480
0,4.977477789,20250904135802723,None,-1,1,-1,-1,1,-2,-2,-1,1757008682722799539
0,4.99234581,20250904135802738,None,-2,1,-2,-2,-1,-2,2,-4,1757008682737636089
0,4.992792606,20250904135802738,None,-1,-1,-2,-1,2,6,0,2,1757008682737837076
0,4.999826908,20250904135802745,None,-2,0,-1,-1,-4,-3,0,0,1757008682745151042
0,5.0,20250904135802745,None,-1,-3,-2,-1,0,-6,-1,1,1757008682745367288
0,5.007285356,20250904135802753,None,-2,0,-1,0,-2,1,-1,-5,1757008682752609491
0,5.007468939,20250904135802753,None,3,1,-2,3,3,4,1,-1,1757008682752793073
0,5.022109032,20250904135802767,None,-1,-2,-3,0,-10,-5,-7,-1,1757008682767452955
0,5.022297859,20250904135802768,None,-6,-7,0,-2,-2,4,-3,0,1757008682767608404
0,5.0295403,20250904135802775,None,4,0,1,-1,2,3,6,-2,1757008682774901866
0,5.029733181,20250904135802775,None,-2,1,1,-4,2,4,4,4,1757008682775021791
0,5.037006616,20250904135802782,None,-1,0,0,2,-3,-8,-2,-3,1757008682782393693
0,5.03719449,20250904135802782,None,2,2,-3,-1,-1,3,-4,-1,1757008682782508373
0,5.052170753,20250904135802797,None,-1,-1,-2,-2,0,3,4,2,1757008682797513961
0,5.05235672,20250904135802798,None,0,2,2,0,-1,-5,-3,-1,1757008682797676086
0,5.059541941,20250904135802805,None,1,-1,0,-1,-4,0,-4,-2,1757008682804916620
0,5.059733629,20250904135802805,None,-9,0,-1,2,0,1,-1,3,1757008682805023670
0,5.06704545,20250904135802812,None,7,2,-4,-1,0,-1,-2,0,1757008682812425613
0,5.06723237,20250904135802813,None,3,1,-1,-3,1,-2,-1,-4,1757008682812552690
0,5.082049608,20250904135802827,None,-1,-2,-2,1,-3,0,-1,-4,1757008682827416658
0,5.082237005,20250904135802827,None,3,-1,-3,-3,1,4,0,-1,1757008682827546834
0,5.089692116,20250904135802835,None,-1,2,0,5,1,1,0,1,1757008682834901809
0,5.090061188,20250904135802835,None,-2,1,-1,2,-1,-3,4,-3,1757008682835020542
0,5.097020864,20250904135802842,None,0,-1,-1,-1,-2,1,-4,2,1757008682842405080
0,5.097194195,20250904135802842,None,-4,-3,0,0,-1,-1,-2,-1,1757008682842523097
0,5.112097978,20250904135802857,None,-7,-2,-4,1,-4,-1,-1,-1,1757008682857466936
0,5.11228323,20250904135802858,None,7,1,-2,-3,-1,-4,-1,-1,1757008682857591629
0,5.119557381,20250904135802865,None,2,1,0,-3,-1,-3,-2,1,1757008682864920854
0,5.119769811,20250904135802865,None,-5,0,-3,-3,0,-4,-6,-2,1757008682865045070
0,5.127053976,20250904135802872,None,0,0,1,-2,0,6,2,-2,1757008682872442960
0,5.12724185,20250904135802872,None,-1,-4,-2,0,0,-3,3,-4,1757008682872565507
0,5.142041683,20250904135802887,None,2,-2,0,-3,-1,-4,0,-1,1757008682887399673
0,5.14223218,20250904135802887,None,-4,-2,-4,-1,-1,-1,-2,0,1757008682887533664
0,5.149758577,20250904135802895,None,2,0,-2,0,2,0,0,1,1757008682894900321
0,5.150079965,20250904135802895,None,1,-2,-1,-1,-3,2,3,3,1757008682895026683
0,5.1569778920000005,20250904135802902,None,-1,-3,-3,-2,0,2,-3,-2,1757008682902395963
0,5.157167196,20250904135802902,None,-3,-2,-2,-1,0,2,2,0,1757008682902526140
0,5.171992063,20250904135802917,None,1,-2,-3,1,-5,4,-6,-3,1757008682917417526
0,5.172207594,20250904135802917,None,-5,0,0,-1,0,-8,3,-1,1757008682917522192
0,5.179946422,20250904135802925,None,8,0,-3,-2,4,-2,-3,2,1757008682925021171
0,5.180159569,20250904135802925,None,1,0,0,-2,-5,-3,-3,-1,1757008682925121307
0,5.1873734,20250904135802933,None,-1,0,0,-3,0,2,1,-4,1757008682932509660
0,5.187602043,20250904135802933,None,-6,-3,-1,-2,-3,0,-1,-1,1757008682932599544
0,5.202405453,20250904135802948,None,0,-3,-5,-2,-3,-2,0,-4,1757008682947506666
0,5.202660322,20250904135802948,None,0,-3,0,2,3,-3,-3,-2,1757008682947603225
0,5.209917784,20250904135802955,None,12,1,1,2,0,0,0,3,1757008682954991102
0,5.210133791,20250904135802955,None,-3,0,-1,1,-1,0,-3,1,1757008682955088615
0,5.21726203,20250904135802963,None,-5,-1,-1,1,0,-5,-3,-2,1757008682962485551
0,5.217425585,20250904135802963,None,-3,2,-2,-3,-1,-4,-4,-2,1757008682962579965
0,5.232332468,20250904135802978,None,1,0,-2,1,2,2,2,-2,1757008682977607011
0,5.23246026,20250904135802978,None,-2,-3,-3,-1,0,0,-1,0,1757008682977739334
0,5.239768267,20250904135802985,None,-2,0,-3,-2,-1,1,1,-1,1757008682985065937
0,5.239877224,20250904135802985,None,-3,-2,0,0,0,0,-2,-1,1757008682985194683
0,5.24761796,20250904135802993,None,0,2,-2,0,-3,-3,0,1,1757008682992749214
0,5.247768164,20250904135802993,None,0,0,-2,-2,-1,0,-1,-4,1757008682992928743
0,5.262453794,20250904135803008,None,0,-2,-1,2,-1,-1,0,4,1757008683007631778
0,5.26265192,20250904135803008,None,-6,-5,-1,-4,-1,2,2,-5,1757008683007801771
0,5.270042181,20250904135803015,None,4,-1,-1,-3,-4,-5,-1,0,1757008683015197992
0,5.270217895,20250904135803015,None,1,-1,-3,-3,-1,-3,-3,-2,1757008683015404701
0,5.277194738,20250904135803022,None,0,-2,0,1,-1,1,-1,3,1757008683022526741
0,5.277292251,20250904135803023,None,0,0,0,-2,-2,-5,-1,-1,1757008683022652387
0,5.292314768,20250904135803038,None,-3,1,-1,1,1,1,2,2,1757008683037617921
0,5.292428493,20250904135803038,None,2,-1,1,1,0,2,-3,-1,1757008683037751913
0,5.299754619,20250904135803045,None,3,-4,0,-1,0,5,-2,-4,1757008683045056819
0,5.299864054,20250904135803045,None,-5,-1,0,-2,-1,-10,-1,-3,1757008683045179843
0,5.307119608,20250904135803052,None,1,2,6,1,0,7,-2,-2,1757008683052514553
0,5.307200909,20250904135803052,None,-2,-5,-1,-1,-1,-9,0,-3,1757008683052623033
0,5.32228899,20250904135803068,None,-1,0,-2,-2,0,0,-1,-2,1757008683067600965
0,5.322393894,20250904135803068,None,-2,-1,3,1,0,2,1,0,1757008683067723035
0,5.329790354,20250904135803075,None,1,-1,2,0,-1,-6,-9,0,1757008683075099706
0,5.329903602,20250904135803075,None,-10,-3,-3,2,1,-1,-4,-2,1757008683075221061
0,5.337256908,20250904135803083,None,0,1,-2,0,0,-4,0,0,1757008683082604169
0,5.337362528,20250904135803083,None,1,2,-2,1,-5,3,2,-2,1757008683082722663
0,5.352366686,20250904135803098,None,-2,-4,-2,0,-1,2,-4,1,1757008683097670316
0,5.35247755,20250904135803098,None,2,-1,-1,-1,-1,-2,-4,2,1757008683097801208
0,5.359639168,20250904135803105,None,-2,-1,-2,-2,0,-1,0,-4,1757008683105100870
0,5.359725237,20250904135803105,None,-1,-2,-1,1,-2,1,0,0,1757008683105209350
0,5.367595196,20250904135803113,None,0,1,-2,0,-2,-8,3,-2,1757008683112840414
0,5.3676695819999996,20250904135803113,None,3,0,-1,0,2,0,-2,-1,1757008683113027095
0,5.382572889,20250904135803128,None,0,0,1,0,1,2,8,0,1757008683127799987
0,5.382663011,20250904135803128,None,-4,-3,1,-1,0,-5,1,0,1757008683127986192
0,5.390017032,20250904135803135,None,-1,2,3,-7,-6,2,0,-4,1757008683135329961
0,5.390082836,20250904135803135,None,-2,-2,1,1,3,1,0,2,1757008683135514974
0,5.397561312,20250904135803143,None,-3,-2,-1,4,1,4,-1,0,1757008683142805576
0,5.397648334,20250904135803143,None,5,-1,0,-1,-3,-8,-7,-3,1757008683142996788
0,5.41252327,20250904135803158,None,-1,0,-3,1,0,-3,-1,0,1757008683157798290
0,5.412596941,20250904135803158,None,-1,-1,-1,-1,-3,1,1,1,1757008683157967567
0,5.420039177,20250904135803165,None,-1,-4,-1,-1,1,2,1,1,1757008683165309667
0,5.420106411,20250904135803165,None,-2,-1,-3,0,1,-3,-3,-2,1757008683165478229
0,5.42755723,20250904135803173,None,-2,-3,-3,-2,-3,4,0,-1,1757008683172821044
0,5.427630663,20250904135803173,None,-1,-1,-1,0,-1,6,-7,-3,1757008683173004627
0,5.442757845,20250904135803188,None,-2,0,1,1,-1,-4,2,-2,1757008683187787532
0,5.442933082,20250904135803188,None,3,-3,2,0,-2,-11,-5,0,1757008683187974452
0,5.450285673,20250904135803196,None,0,-1,-1,-2,-2,1,-1,-1,1757008683195348978
0,5.450464964,20250904135803196,None,-3,0,-2,1,0,0,-3,1,1757008683195730686
0,5.465370893,20250904135803211,None,1,0,1,2,0,3,-1,-1,1757008683210307598
0,5.465585947,20250904135803211,None,-4,-3,-3,-2,-1,0,0,1,1757008683210498332
0,5.473092317,20250904135803218,None,-8,-5,-1,-2,-1,2,1,-1,1757008683217956066
0,5.47328496,20250904135803219,None,-4,2,0,-3,-3,1,1,-3,1757008683218165874
0,5.480255127,20250904135803226,None,-1,2,-2,0,0,2,-2,-2,1757008683225276231
0,5.480423927,20250904135803226,None,5,2,0,0,1,-6,-9,-1,1757008683225445985
0,5.494942188,20250904135803240,None,-2,-3,-1,1,-2,-2,1,4,1757008683240165233
0,5.49509573,20250904135803240,None,-2,0,0,0,-2,-2,-1,-10,1757008683240359306
0,5.502193212,20250904135803247,None,-6,0,0,-1,0,3,2,-1,1757008683247541666
0,5.502295494,20250904135803248,None,0,-1,-2,0,0,0,3,-1,1757008683247672557
0,5.510062694,20250904135803255,None,-1,-2,2,-3,1,1,-1,-3,1757008683255079030
0,5.510241747,20250904135803255,None,-1,-4,0,-4,-2,-6,-2,-1,1757008683255272150
0,5.5252518649999995,20250904135803271,None,0,-2,-3,0,0,1,1,2,1757008683270281076
0,5.525452375,20250904135803271,None,-3,-4,-4,-1,-2,-3,-3,-4,1757008683270464658
0,5.5326464170000005,20250904135803278,None,0,-1,0,0,-2,-1,0,-3,1757008683277770519
0,5.532818794,20250904135803278,None,1,2,0,3,-4,-3,-9,-1,1757008683277954101
0,5.539928675,20250904135803285,None,-1,0,-2,-2,3,0,5,-3,1757008683285166025
0,5.540131807,20250904135803285,None,0,-2,-3,-1,0,-3,-9,-4,1757008683285383701
0,5.555085182,20250904135803300,None,0,-2,-3,-1,-1,2,11,4,1757008683300173997
0,5.5552556509999995,20250904135803300,None,3,2,-1,-3,-3,-1,0,-3,1757008683300364494
0,5.562758207,20250904135803308,None,-4,-1,1,1,-1,1,-1,-2,1757008683307763338
0,5.562947988,20250904135803308,None,2,-1,-2,1,-1,0,1,3,1757008683307949542
0,5.570222616,20250904135803315,None,-1,-4,0,-3,-2,1,-1,-1,1757008683315217494
0,5.570389271,20250904135803316,None,-1,0,-1,-1,-3,-8,-1,-3,1757008683315426826
0,5.584687948,20250904135803330,None,3,-2,-1,0,0,-6,-4,2,1757008683329940319
0,5.584825516,20250904135803330,None,0,1,-1,2,-2,0,1,1,1757008683330135583
0,5.592051983,20250904135803337,None,-1,-5,-1,-1,-7,0,-4,-1,1757008683337474346
0,5.592181682,20250904135803337,None,2,-2,-1,-1,2,1,1,0,1757008683337595224
0,5.599437475,20250904135803345,None,-1,-1,-1,1,0,-2,0,3,1757008683344825029
0,5.599556446,20250904135803345,None,-5,0,0,-6,2,0,-3,-9,1757008683344939947
0,5.614631176,20250904135803360,None,-2,0,-2,-1,1,1,-4,1,1757008683359891891
0,5.614766359,20250904135803360,None,3,0,-2,-2,0,-2,-1,2,1757008683359999895
0,5.622675657,20250904135803368,None,-3,-4,1,0,-3,0,-1,0,1757008683367629766
0,5.62288475,20250904135803368,None,1,2,0,2,1,-2,2,-3,1757008683367824077
0,5.630069256,20250904135803375,None,0,1,0,-5,1,1,1,-1,1757008683375111818
0,5.6302495,20250904135803375,None,-3,-5,-5,-3,-1,1,3,2,1757008683375284433
0,5.645142555,20250904135803390,None,-9,0,-3,1,-1,-6,-8,-3,1757008683390114545
0,5.645346403,20250904135803391,None,6,3,-2,-2,1,-3,-6,-2,1757008683390310287
0,5.652634144,20250904135803398,None,-9,-3,3,1,-3,-1,6,2,1757008683397612094
0,5.652812004,20250904135803398,None,5,0,1,0,1,5,1,0,1757008683397795915
0,5.660339355,20250904135803406,None,-6,3,2,-2,-1,-4,1,-5,1757008683405129432
0,5.6607334609999995,20250904135803406,None,-6,-3,-4,-2,-1,1,-3,-2,1757008683405362129
0,5.675102711,20250904135803420,None,0,2,-1,0,1,2,3,0,1757008683420087575
0,5.6752843859999995,20250904135803421,None,-2,-3,-3,0,-3,-4,-1,-1,1757008683420275211
0,5.682555675,20250904135803428,None,-3,-1,-2,-1,-1,-3,0,0,1757008683427599906
0,5.682720423,20250904135803428,None,-2,1,1,-3,-4,1,-1,0,1757008683427777051
0,5.69012928,20250904135803435,None,-2,1,0,0,-2,-1,0,-2,1757008683435099601
0,5.690307617,20250904135803436,None,-1,-2,-1,2,0,-1,-2,0,1757008683435296297
0,5.705188036,20250904135803450,None,-3,-1,0,-2,0,8,2,1,1757008683450267076
0,5.705361366,20250904135803451,None,-4,-2,1,-3,-4,-12,-1,-2,1757008683450462579
0,5.712651968,20250904135803458,None,-1,2,-1,-2,0,-3,-2,-2,1757008683457732677
0,5.712814093,20250904135803458,None,-2,-4,-3,-2,-1,-2,-1,0,1757008683457878828
0,5.720418692,20250904135803466,None,0,-2,2,-1,-1,1,1,4,1757008683465339899
0,5.720671892,20250904135803466,None,1,0,0,-1,-1,-2,-2,-4,1757008683465540170
0,5.735789299,20250904135803481,None,-3,-2,0,0,-1,1,1,0,1757008683480568408
0,5.735985994,20250904135803481,None,1,1,0,-1,-1,-1,0,-1,1757008683480864524
0,5.742901087,20250904135803488,None,-1,-3,-2,-1,-1,-2,0,-2,1757008683487813472
0,5.743091822,20250904135803488,None,-5,-3,4,0,0,-1,-5,-3,1757008683488025426
0,5.750397205,20250904135803496,None,0,-1,0,-2,-1,1,3,0,1757008683495345115
0,5.750613928,20250904135803496,None,1,-3,-4,0,0,1,-3,-3,1757008683495546340
0,5.765129566,20250904135803510,None,-2,1,1,1,-1,-3,0,-2,1757008683510119676
0,5.765353441,20250904135803511,None,0,-1,-2,0,-2,0,1,-4,1757008683510289669
0,5.772633791,20250904135803518,None,1,1,-2,-3,0,-3,-2,-1,1757008683517713308
0,5.77279973,20250904135803518,None,-1,-1,1,-1,-1,-3,-1,2,1757008683517898797
0,5.780287266,20250904135803526,None,-6,-4,3,-1,-4,0,-3,-4,1757008683525289535
0,5.780484676,20250904135803526,None,-2,-1,1,-2,-1,3,-2,-4,1757008683525482416
0,5.794918537,20250904135803540,None,6,-1,-3,-1,-1,-2,2,-4,1757008683540132284
0,5.795072794,20250904135803540,None,10,1,0,-1,-1,8,6,4,1757008683540266275
0,5.802160978,20250904135803547,None,-1,0,-1,1,0,-6,-4,0,1757008683547521829
0,5.802250385,20250904135803547,None,2,-2,0,-3,0,1,-4,-3,1757008683547643899
0,5.817571878,20250904135803563,None,0,0,-2,2,0,-2,5,-2,1757008683562588691
0,5.81780839,20250904135803563,None,1,-2,-3,0,-3,-11,0,1,1757008683562729120
0,5.825069904,20250904135803570,None,-1,-1,-2,1,0,1,-2,-1,1757008683570206165
0,5.825234413,20250904135803570,None,1,-1,0,-2,1,3,-3,0,1757008683570419788
0,5.832294464,20250904135803578,None,-2,-1,0,1,0,0,-3,-3,1757008683577606916
0,5.832411289,20250904135803578,None,1,-2,-4,-2,-4,-4,-1,3,1757008683577745676
0,5.839852095,20250904135803585,None,-3,-3,1,2,2,0,-3,-1,1757008683585163593
0,5.839957237,20250904135803585,None,0,1,-2,-2,0,0,0,0,1757008683585272312
0,5.854771614,20250904135803600,None,-3,-4,-1,-1,1,6,-1,-3,1757008683600118875
0,5.854870796,20250904135803600,None,1,-1,1,-2,0,-4,-2,-2,1757008683600256443
0,5.862227678,20250904135803607,None,-2,0,-1,-1,-1,-1,-2,1,1757008683607609272
0,5.862330437,20250904135803608,None,-1,-2,-5,1,-2,-2,1,-4,1757008683607725858
0,5.877335548,20250904135803623,None,-2,-2,-1,1,-6,-1,-2,-1,1757008683622677087
0,5.877440452,20250904135803623,None,0,-1,1,3,-1,0,1,-3,1757008683622800111
0,5.88453865,20250904135803630,None,-2,-3,3,0,-2,-3,-4,-1,1757008683629949092
0,5.884636164,20250904135803630,None,-1,-2,-3,-1,-1,1,-3,-3,1757008683630075454
0,5.892330646,20250904135803638,None,1,-2,-1,3,-1,-1,0,-1,1757008683637679815
0,5.892395019,20250904135803638,None,1,0,1,-3,-1,0,2,-5,1757008683637839555
0,5.89998579,20250904135803645,None,0,-1,-2,1,1,-1,2,2,1757008683645307540
0,5.900062084,20250904135803645,None,0,-1,1,-2,2,1,-2,1,1757008683645486116
0,5.915036917,20250904135803660,None,-3,-1,1,-3,-3,0,4,-1,1757008683660312175
0,5.915123224,20250904135803660,None,1,-3,-2,-2,-1,-1,-2,0,1757008683660490036
0,5.922653198,20250904135803668,None,0,-1,2,-2,0,-2,-2,-5,1757008683667685270
0,5.922822952,20250904135803668,None,-4,-4,-3,-2,0,-3,0,-1,1757008683667857885
0,5.938050985,20250904135803683,None,-2,0,-3,-2,-1,1,3,1,1757008683682895898
0,5.938240528,20250904135803683,None,3,0,1,1,-3,-1,2,-2,1757008683683091640
0,5.945453644,20250904135803691,None,-5,-4,0,-1,-1,0,-2,-1,1757008683690453052
0,5.945667505,20250904135803691,None,0,-1,3,0,2,-2,0,3,1757008683690648555
0,5.95274353,20250904135803698,None,-3,-1,-2,-1,1,0,1,-1,1757008683697763919
0,5.952931881,20250904135803698,None,1,0,2,0,2,-3,-4,-2,1757008683697942972
0,5.960272074,20250904135803706,None,1,-2,2,0,0,4,3,-1,1757008683705364465
0,5.960436344,20250904135803706,None,0,-3,-2,2,1,-6,2,1,1757008683705530643
0,5.975498438,20250904135803721,None,-2,-3,0,-1,-5,-2,1,-3,1757008683720406055
0,5.975763082,20250904135803721,None,-1,0,-1,-3,-4,0,0,2,1757008683720604658
0,5.982954979,20250904135803728,None,3,-1,-3,-1,-1,5,-5,3,1757008683727898120
0,5.983154535,20250904135803728,None,-1,2,-4,-2,-2,-3,-3,-1,1757008683728095054
0,5.998155594,20250904135803743,None,1,-2,-2,-1,-1,-3,0,-1,1757008683742903947
0,5.998389721,20250904135803744,None,0,-5,0,-1,1,6,3,4,1757008683743121385
0,6.005221128,20250904135803750,None,1,-2,2,2,-5,5,-3,-3,1757008683750330209
0,6.005387306,20250904135803751,None,1,1,0,1,1,6,2,-1,1757008683750501871
0,6.012659073,20250904135803758,None,-2,-3,-2,-4,-1,-5,-1,-1,1757008683757659196
0,6.012831926,20250904135803758,None,-3,0,-1,-1,-1,0,2,2,1757008683757831573
0,6.020173073,20250904135803765,None,-2,-3,-2,-2,2,0,-1,-3,1757008683765065193
0,6.020352602,20250904135803766,None,-2,-1,-2,-2,-2,-1,2,1,1757008683765223026
0,6.035024404,20250904135803780,None,1,-4,0,1,-1,0,0,2,1757008683780065536
0,6.035257578,20250904135803780,None,-2,2,-1,-1,-1,-2,-3,-3,1757008683780205011
0,6.042344093,20250904135803788,None,2,2,-4,-1,-3,-2,0,-1,1757008683787471294
0,6.042540312,20250904135803788,None,-3,-2,1,-3,-1,3,0,-2,1757008683787572622
0,6.057392597,20250904135803803,None,0,-1,-2,-1,-2,-4,-2,2,1757008683802506685
0,6.057607651,20250904135803803,None,1,1,-3,1,1,2,2,0,1757008683802613973
0,6.064906597,20250904135803810,None,-3,1,-2,2,-1,0,1,2,1757008683809994935
0,6.065094232,20250904135803810,None,6,-4,0,0,-2,-4,-1,-1,1757008683810097455
0,6.072347402,20250904135803818,None,-1,0,-1,-2,-1,-1,-4,-1,1757008683817501544
0,6.072532177,20250904135803818,None,4,1,0,-2,-1,-3,-2,0,1757008683817602634
0,6.079979896,20250904135803825,None,3,1,-2,-1,-1,-1,1,0,1757008683825043916
0,6.080155611,20250904135803825,None,-4,-2,0,-2,0,0,2,-2,1757008683825144529
0,6.094465256,20250904135803840,None,-2,-2,0,-3,1,1,0,4,1757008683839860439
0,6.094601393,20250904135803840,None,-4,-1,-1,-1,0,-3,-3,-6,1757008683839962959
0,6.101961136,20250904135803847,None,1,-3,-3,-1,-1,1,2,-2,1757008683847417354
0,6.10204196,20250904135803847,None,0,2,0,2,-2,-1,-2,-1,1757008683847549438
0,6.116913795,20250904135803862,None,0,0,1,2,1,-2,-3,1,1757008683862442970
0,6.117002964,20250904135803862,None,-3,-2,-1,-2,-1,0,0,0,1757008683862569570
0,6.124534607,20250904135803870,None,-1,0,0,-2,2,3,1,-2,1757008683870038270
0,6.124622583,20250904135803870,None,-1,0,3,1,-5,-5,1,-1,1757008683870178222
0,6.132306099,20250904135803878,None,0,-1,-1,0,0,0,0,1,1757008683877541065
0,6.132571936,20250904135803878,None,-3,-1,0,-2,-2,-4,4,-2,1757008683877657413
0,6.139775038,20250904135803885,None,0,4,1,-1,1,4,-5,-1,1757008683885015010
0,6.139969826,20250904135803885,None,-4,-4,0,-2,-1,1,-1,0,1757008683885120630
0,6.154773712,20250904135803900,None,-3,-1,-3,-2,1,0,-3,-2,1757008683900020837
0,6.15495348,20250904135803900,None,1,-4,1,-1,0,-2,-2,-6,1757008683900128364
0,6.162214994,20250904135803907,None,-3,2,-1,-1,0,3,2,0,1757008683907510519
0,6.162393808,20250904135803908,None,-2,2,1,-3,0,-7,1,-1,1757008683907620429
0,6.177213192,20250904135803922,None,-2,0,1,0,0,1,-1,1,1757008683922514677
0,6.177390337,20250904135803923,None,-1,0,0,0,0,0,-4,-3,1757008683922620058
0,6.184761524,20250904135803930,None,-1,1,-2,-1,-2,-3,0,0,1757008683930007219
0,6.184935093,20250904135803930,None,-4,-4,0,-2,-1,-1,-1,-1,1757008683930114984
0,6.192152738,20250904135803937,None,5,1,0,-1,1,-2,-6,-2,1757008683937473773
0,6.192359924,20250904135803938,None,-1,-2,0,-2,-1,-4,-5,-1,1757008683937572956
0,6.199977159,20250904135803945,None,-6,-2,-2,0,-1,1,0,-4,1757008683945168018
0,6.200137615,20250904135803945,None,-1,-2,-1,-1,-1,1,0,-1,1757008683945385456
0,6.215051174,20250904135803960,None,1,-3,-1,-2,0,-1,0,-1,1757008683960264205
0,6.215229988,20250904135803960,None,1,2,-1,1,1,-2,0,1,1757008683960453271
0,6.222465992,20250904135803968,None,1,-3,-5,0,-4,-1,-2,1,1757008683967704534
0,6.222660541,20250904135803968,None,-3,-1,1,-2,-2,0,3,-2,1757008683967887163
0,6.237530708,20250904135803983,None,1,-1,-4,-1,-1,-3,-3,3,1757008683982732295
0,6.237710714,20250904135803983,None,-3,0,-1,-3,-2,-1,-6,-1,1757008683982922792
0,6.245000362,20250904135803990,None,1,0,0,1,0,-4,-7,-3,1757008683990313053
0,6.245171308,20250904135803990,None,-1,0,-2,1,2,2,6,3,1757008683990495920
0,6.252224445,20250904135803997,None,-2,-1,1,-3,0,0,2,4,1757008683997694492
0,6.252310037,20250904135803998,None,1,-1,-1,-2,0,0,-1,-1,1757008683997881650
0,6.259692192,20250904135804005,None,-2,2,1,0,0,-3,-3,-1,1757008684005177974
0,6.259823322,20250904135804005,None,-2,-2,0,0,-2,0,-3,1,1757008684005388498
0,6.274846077,20250904135804020,None,-1,-1,0,2,-1,1,-3,-5,1757008684020107507
0,6.274991512,20250904135804020,None,2,2,1,-1,1,3,-4,-3,1757008684020262002
0,6.282445907,20250904135804028,None,0,-4,0,-3,1,2,3,0,1757008684027718067
0,6.282646656,20250904135804028,None,1,0,-1,0,-2,-6,-1,-1,1757008684027905941
0,6.297336817,20250904135804043,None,-3,2,-1,-2,-1,-1,-1,-2,1757008684042672395
0,6.297539711,20250904135804043,None,0,0,0,1,4,-5,-1,2,1757008684042865514
0,6.304956198,20250904135804050,None,2,-1,2,-1,0,-2,-2,-5,1757008684050184011
0,6.305135727,20250904135804050,None,-6,-1,-5,1,-1,0,-2,-3,1757008684050392866
0,6.312408686,20250904135804058,None,-1,-5,-2,-2,-1,0,-5,-1,1757008684057679891
0,6.312600136,20250904135804058,None,1,-4,-2,0,0,1,-1,3,1757008684057857990
0,6.319969416,20250904135804065,None,2,-2,2,-4,1,-3,-4,-3,1757008684065186023
0,6.320137739,20250904135804065,None,-1,-2,-2,-2,0,2,-1,-1,1757008684065394639
0,6.3349127769999996,20250904135804080,None,-5,0,0,-5,0,1,0,4,1757008684080276727
0,6.335077524,20250904135804080,None,-2,1,0,-1,-3,-3,0,0,1757008684080463647
0,6.342265129,20250904135804088,None,0,-2,-2,0,-2,-1,-4,-5,1757008684087748050
0,6.342363834,20250904135804088,None,0,-2,-3,0,-2,-2,-3,1,1757008684087940454
0,6.357240438,20250904135804102,None,0,1,-1,-2,-3,-6,-5,0,1757008684102733612
0,6.357313871,20250904135804103,None,-6,1,-1,0,-2,-4,1,-6,1757008684102924108
0,6.364985943,20250904135804110,None,1,-3,-3,-1,1,6,2,1,1757008684110177993
0,6.36515212,20250904135804110,None,4,-1,-2,0,-1,-7,-1,0,1757008684110392093
0,6.3724470140000005,20250904135804118,None,0,0,-1,-1,0,-1,0,0,1757008684117699146
0,6.372653723,20250904135804118,None,1,0,0,-3,1,1,2,1,1757008684117878198
0,6.380172491,20250904135804125,None,1,0,-3,1,-4,2,-1,-2,1757008684125180482
0,6.3803727630000004,20250904135804126,None,-1,-3,0,2,-1,1,1,0,1757008684125383377
0,6.395168781,20250904135804140,None,0,0,-4,-1,1,-3,6,1,1757008684140196561
0,6.395366907,20250904135804141,None,0,-1,-4,-1,-2,-5,2,3,1757008684140406131
0,6.402660847,20250904135804148,None,-3,-4,1,-4,-2,1,-7,-4,1757008684147713422
0,6.40288949,20250904135804148,None,3,3,-2,-1,-4,-2,-3,-4,1757008684147897481
0,6.417660236,20250904135804163,None,0,-3,-2,-2,-2,-1,0,1,1757008684162704229
0,6.417860031,20250904135804163,None,-8,-2,-3,0,2,4,0,4,1757008684162885665
0,6.425143719,20250904135804170,None,3,3,-1,0,-1,-5,-1,-3,1757008684170172452
0,6.42533946,20250904135804171,None,1,-3,3,-1,-2,1,-2,2,1757008684170380830
0,6.432658195,20250904135804178,None,-1,-1,1,0,0,-9,-3,-3,1757008684177698373
0,6.432858229,20250904135804178,None,-3,-1,1,0,1,0,0,-1,1757008684177875041
0,6.447677374,20250904135804193,None,1,-2,0,-1,-2,4,3,-1,1757008684192718505
0,6.448223591,20250904135804193,None,-4,-2,-3,0,-2,-5,-3,-1,1757008684192893743
0,6.455227375,20250904135804200,None,-1,-1,-1,1,1,1,-1,-3,1757008684200219392
0,6.455458641,20250904135804201,None,-6,1,-3,-3,-1,0,2,-1,1757008684200427293
0,6.462875843,20250904135804208,None,-1,0,-3,-3,0,-7,-1,1,1757008684207718849
0,6.463201284,20250904135804208,None,0,-1,1,-5,0,0,0,-2,1757008684207892417
0,6.477855682,20250904135804223,None,1,-3,-4,-1,-1,3,-2,0,1757008684222700357
0,6.478162289,20250904135804223,None,2,1,-1,-3,-3,1,2,-9,1757008684222880840
0,6.48509264,20250904135804230,None,-1,0,-1,-2,0,-3,-2,-1,1757008684230114221
0,6.4852943419999995,20250904135804231,None,-4,-2,-3,-1,-5,-2,-6,3,1757008684230262279
0,6.492365122,20250904135804238,None,0,1,-5,-1,-4,1,1,0,1757008684237492322
0,6.49258852,20250904135804238,None,1,-2,1,-1,-2,0,0,1,1757008684237595796
0,6.507406235,20250904135804253,None,0,-3,-3,-1,-2,-2,-2,1,1757008684252505064
0,6.507634163,20250904135804253,None,-2,4,-3,0,-3,-5,-5,-1,1757008684252597808
0,6.515246868,20250904135804261,None,-2,-1,0,0,-3,1,3,-3,1757008684260301351
0,6.515445471,20250904135804261,None,5,-2,-2,0,-2,-3,-1,0,1757008684260478734
0,6.523005247,20250904135804268,None,0,2,-1,-3,1,1,0,-3,1757008684267841577
0,6.523226261,20250904135804268,None,-1,1,1,-3,0,5,1,-2,1757008684268054485
0,6.537803173,20250904135804283,None,-3,-2,1,1,-1,-7,-1,1,1757008684282745361
0,6.538029671,20250904135804283,None,0,-4,-3,0,-1,3,1,0,1757008684282924890
0,6.545294285,20250904135804291,None,-5,-3,-4,-1,0,-1,-4,2,1757008684290217638
0,6.545542717,20250904135804291,None,3,4,3,1,-2,-3,1,-2,1757008684290432453
0,6.553025484,20250904135804298,None,1,-1,0,3,0,-4,-3,1,1757008684297923803
0,6.553256273,20250904135804299,None,-6,0,-1,3,1,3,-1,-3,1757008684298124551
0,6.56816268,20250904135804313,None,2,-2,-1,1,-1,1,2,2,1757008684312983512
0,6.568422556,20250904135804314,None,-1,0,-3,-1,-2,-6,-1,0,1757008684313198328
0,6.575154066,20250904135804320,None,0,-1,2,1,0,1,0,-3,1757008684320280075
0,6.575322628,20250904135804321,None,-2,5,-1,0,-2,3,0,-2,1757008684320456743
0,6.582802534,20250904135804328,None,-3,-2,2,-1,1,2,-2,1,1757008684327786684
0,6.582978487,20250904135804328,None,1,0,2,-2,0,5,2,-2,1757008684327969789
0,6.596972227,20250904135804342,None,0,0,-2,-4,1,-6,0,-2,1757008684342432260
0,6.59706068,20250904135804342,None,0,-1,-1,-3,-2,-6,0,1,1757008684342553138
0,6.604290485,20250904135804350,None,0,-1,-4,0,-1,2,1,-1,1757008684349839448
0,6.60434246,20250904135804350,None,-2,1,1,-1,-1,0,1,-4,1757008684349962472
0,6.612058878,20250904135804357,None,-5,0,0,-2,-1,-1,-5,-1,1757008684357453107
0,6.61217165,20250904135804357,None,-2,-5,-1,0,0,0,-1,-2,1757008684357603788
0,6.627251863,20250904135804372,None,0,2,-2,0,-1,1,3,0,1757008684372558593
0,6.627347708,20250904135804373,None,0,-1,-3,2,-2,-2,-3,4,1757008684372667074
0,6.634927749,20250904135804380,None,3,-4,-2,0,1,-1,-2,-1,1757008684380072593
0,6.635227203,20250904135804380,None,-4,-3,0,0,-1,0,1,-3,1757008684380250930
0,6.642334223,20250904135804388,None,-3,0,1,-3,-2,-3,-3,-3,1757008684387536525
0,6.642559767,20250904135804388,None,-2,-1,-1,-1,-1,4,-1,1,1757008684387653589
0,6.657730818,20250904135804403,None,-4,-2,0,-2,1,1,-1,-2,1757008684402728796
0,6.6579079629999995,20250904135804403,None,-2,0,-3,-3,-3,-6,0,-5,1757008684402921676
0,6.6652083399999995,20250904135804410,None,1,1,0,-2,-3,4,-2,-2,1757008684410223722
0,6.6653828619999995,20250904135804411,None,-1,-3,2,1,-2,-6,-1,0,1757008684410439729
0,6.672573805,20250904135804418,None,-3,-4,2,-3,-1,2,1,-3,1757008684417695999
0,6.672733784,20250904135804418,None,0,-4,-4,2,-1,-1,3,-1,1757008684417876243
0,6.687598944,20250904135804433,None,0,1,1,-4,-1,4,-3,-1,1757008684432643890
0,6.687784195,20250904135804433,None,-2,0,-5,-3,-3,-8,1,4,1757008684433001279
0,6.695003033,20250904135804440,None,3,-2,-1,0,0,-1,-1,-7,1757008684440099239
0,6.695177317,20250904135804440,None,1,-3,0,-1,-3,2,2,1,1757008684440222740
0,6.702537536,20250904135804448,None,-3,1,0,-2,-1,-1,1,0,1757008684447584152
0,6.702706098,20250904135804448,None,-1,0,1,2,-4,-3,0,-3,1757008684447719335
0,6.717559337,20250904135804463,None,1,-2,0,0,0,0,3,-1,1757008684462578058
0,6.717748165,20250904135804463,None,0,-1,1,2,-3,0,-2,0,1757008684462695598
0,6.7249135970000005,20250904135804470,None,-3,-4,-1,-1,0,-3,0,-1,1757008684470027923
0,6.72510767,20250904135804470,None,0,-3,-2,-1,-1,-9,-3,1,1757008684470134973
0,6.732344389,20250904135804478,None,2,1,-2,1,0,3,2,0,1757008684477491617
0,6.732572079,20250904135804478,None,1,3,3,-3,-1,0,-3,-2,1757008684477588891
0,6.747494936,20250904135804493,None,0,0,-2,1,-4,-2,-1,3,1757008684492616176
0,6.747718811,20250904135804493,None,1,-1,-2,0,-1,-1,-5,0,1757008684492817163
0,6.7549541,20250904135804500,None,0,0,-2,-2,0,2,-1,-3,1757008684500099658
0,6.755131006,20250904135804500,None,-1,-1,0,-4,-2,3,2,-1,1757008684500250816
0,6.76221323,20250904135804507,None,0,-2,-4,-2,-4,-7,-8,2,1757008684507513761
0,6.762317657,20250904135804508,None,-1,-1,0,-3,0,-3,-7,-3,1757008684507619142
0,6.777167082,20250904135804522,None,-3,3,-4,0,-1,-3,1,-1,1757008684522530555
0,6.777311325,20250904135804523,None,-4,0,1,-3,1,-6,4,3,1757008684522655725
0,6.784535646,20250904135804530,None,0,1,-1,1,-4,8,2,0,1757008684530026435
0,6.784653187,20250904135804530,None,-4,0,-1,0,-2,3,-2,-1,1757008684530143976
0,6.792124033,20250904135804537,None,-4,-3,-1,-1,-5,-3,-4,-1,1757008684537526607
0,6.79227972,20250904135804538,None,1,0,1,-3,-4,-3,0,2,1757008684537655353
0,6.807152748,20250904135804552,None,-1,-2,-1,-1,-3,2,-1,-2,1757008684552587270
0,6.807319641,20250904135804553,None,-2,-1,-2,-2,-1,-4,0,-3,1757008684552701234
0,6.815045357,20250904135804560,None,1,0,3,-2,2,-1,-4,-4,1757008684560100078
0,6.815161228,20250904135804560,None,-7,-4,-3,-3,-1,-1,-2,-3,1757008684560217857
0,6.8222491739999995,20250904135804567,None,4,0,-3,0,-1,-1,-3,2,1757008684567515850
0,6.822399139,20250904135804568,None,-2,-3,0,-4,-4,1,0,2,1757008684567617654
0,6.837204456,20250904135804582,None,-2,0,0,1,-2,0,-3,0,1757008684582516908
0,6.837327242,20250904135804583,None,-3,-2,-2,-2,0,-1,1,-1,1757008684582621097
0,6.844789505,20250904135804590,None,-3,1,0,-2,0,3,0,1,1757008684590067386
0,6.844905615,20250904135804590,None,1,-1,-2,-1,2,-4,-1,0,1757008684590184926
0,6.852278232,20250904135804598,None,3,0,-2,-1,-4,6,-2,-1,1757008684597585678
0,6.852366686,20250904135804598,None,-1,0,-3,-4,1,-2,0,-1,1757008684597723245
0,6.867324829,20250904135804613,None,-1,-2,-2,-4,-2,-4,-1,4,1757008684612673521
0,6.867407322,20250904135804613,None,-3,-2,0,-5,-1,2,0,0,1757008684612803220
0,6.8747818469999995,20250904135804620,None,-1,0,1,0,1,-3,-1,-4,1757008684620128154
0,6.874846458,20250904135804620,None,0,-2,2,-2,-1,-1,-3,1,1757008684620249032
0,6.882561684,20250904135804628,None,-3,-2,-4,1,-1,-3,-3,-2,1757008684627628564
0,6.882745743,20250904135804628,None,3,1,0,-1,-2,0,4,-3,1757008684627730846
0,6.897624254,20250904135804643,None,-4,0,-2,-3,-4,1,1,-1,1757008684642653465
0,6.897823572,20250904135804643,None,5,1,-2,-1,2,2,-1,0,1757008684642788171
0,6.904589414,20250904135804650,None,5,1,1,2,3,-7,-5,-1,1757008684650025844
0,6.904700518,20250904135804650,None,0,-2,-3,-3,-1,8,4,-1,1757008684650165319
0,6.912092686,20250904135804657,None,-2,-1,-3,-5,-3,-5,1,-3,1757008684657493829
0,6.912176847,20250904135804657,None,-4,-2,1,-2,-1,3,0,-6,1757008684657660961
0,6.927264929,20250904135804673,None,-3,1,3,-3,-2,-9,-2,1,1757008684672612905
0,6.927336454,20250904135804673,None,1,0,-3,-1,0,-4,-3,0,1757008684672754764
0,6.934799194,20250904135804680,None,-1,-2,0,-1,-1,2,-1,-3,1757008684680102348
0,6.934905767,20250904135804680,None,-2,-1,-3,-3,-1,3,1,1,1757008684680249452
0,6.942222118,20250904135804687,None,-3,0,2,0,2,0,-4,0,1757008684687587022
0,6.94229579,20250904135804688,None,-2,1,2,1,1,2,-6,-1,1757008684687701225
0,6.957177162,20250904135804702,None,-3,-4,-2,-1,0,0,9,0,1757008684702520370
0,6.95726347,20250904135804703,None,3,-1,2,-1,0,-2,-3,0,1757008684702619314
0,6.964721918,20250904135804710,None,0,0,1,0,1,-3,-1,2,1757008684710027456
0,6.96481657,20250904135804710,None,-7,-7,-2,-2,-2,0,-4,-3,1757008684710129737
0,6.972352981,20250904135804718,None,4,4,-1,1,0,0,0,-1,1757008684717511415
0,6.972454071,20250904135804718,None,-3,2,-4,-3,-2,-1,1,2,1757008684717667818
0,6.987558126,20250904135804733,None,3,-2,0,-5,0,-1,-2,0,1757008684732660055
0,6.987711191,20250904135804733,None,2,1,2,-1,1,-4,0,-1,1757008684732845544
0,6.995126486,20250904135804740,None,-3,-1,0,1,-2,-1,1,-2,1757008684740324020
0,6.995276689,20250904135804741,None,-3,-3,-4,-1,-4,-6,-1,-2,1757008684740495204
0,7.002566099,20250904135804748,None,-1,1,-2,1,1,-1,0,2,1757008684747714757
0,7.00272131,20250904135804748,None,-1,-2,0,-1,-2,0,-3,1,1757008684747890233
0,7.017907858,20250904135804763,None,-2,1,-1,0,1,1,3,2,1757008684762821435
0,7.018085718,20250904135804763,None,1,-1,-3,-1,0,-1,1,2,1757008684763031959
0,7.025009394,20250904135804770,None,-3,-1,-1,-1,-3,-2,-2,-6,1757008684770178794
0,7.025171041,20250904135804770,None,2,-1,-1,3,-3,-5,-3,3,1757008684770375728
0,7.0326159,20250904135804778,None,-2,-1,2,-2,-1,8,4,0,1757008684777787685
0,7.032767296,20250904135804778,None,0,-2,0,-1,0,-2,3,-3,1757008684777959346
0,7.0478127,20250904135804793,None,1,0,0,0,-1,-2,0,-3,1757008684792835235
0,7.047992945,20250904135804793,None,-1,0,0,-4,4,4,1,0,1757008684793029069
0,7.055323601,20250904135804801,None,0,0,-3,-2,-7,-19,-4,-1,1757008684800354242
0,7.055536508,20250904135804801,None,-1,1,0,-2,-1,-7,-3,-3,1757008684800534009
0,7.062416792,20250904135804808,None,-3,-4,0,0,-1,3,-3,-1,1757008684807654857
0,7.06265521,20250904135804808,None,0,1,-4,-2,2,2,-3,0,1757008684807814121
0,7.07759285,20250904135804823,None,2,-1,0,1,1,-2,-3,0,1757008684822710990
0,7.077753544,20250904135804823,None,-2,1,-1,-1,-4,2,3,1,1757008684822896480
0,7.084923506,20250904135804830,None,0,-3,2,0,2,0,4,1,1757008684830165386
0,7.085003614,20250904135804830,None,-1,-1,0,1,1,1,-1,-7,1757008684830386877
0,7.092580557,20250904135804838,None,5,-2,-1,2,-1,-3,-1,2,1757008684837685346
0,7.092716694,20250904135804838,None,-3,-3,1,1,0,5,6,-2,1757008684837871074
0,7.107619285,20250904135804853,None,-2,-1,0,0,-1,1,-2,-4,1757008684852769374
0,7.107744455,20250904135804853,None,-1,-2,1,0,0,-2,-3,-4,1757008684852964639
0,7.115043878,20250904135804860,None,0,3,-3,2,0,-1,-1,-1,1757008684860313653
0,7.115128755,20250904135804860,None,0,-1,0,-1,-3,-2,1,-3,1757008684860503435
0,7.122373342,20250904135804868,None,-2,1,-1,-3,0,-2,-6,-1,1757008684867701292
0,7.122458696,20250904135804868,None,-4,0,-2,-1,0,5,4,1,1757008684867886066
0,7.137477875,20250904135804883,None,-3,0,-5,0,4,-1,-7,-1,1757008684882727861
0,7.137596845,20250904135804883,None,-1,2,3,-2,0,1,7,5,1757008684882912874
0,7.144882679,20250904135804890,None,-1,-3,-1,-1,0,-5,-1,0,1757008684890203237
0,7.144977331,20250904135804890,None,3,0,-2,0,0,0,0,0,1757008684890468597
0,7.152405977,20250904135804898,None,-1,-1,1,-2,1,1,-2,0,1757008684897673130
0,7.152500391,20250904135804898,None,0,1,-1,1,2,-7,-4,0,1757008684897854566
0,7.167656183,20250904135804913,None,0,2,-2,-1,0,-4,-2,-1,1757008684912703037
0,7.167821169,20250904135804913,None,-2,0,2,-4,-1,3,-2,-6,1757008684912876367
0,7.175201893,20250904135804920,None,-1,-3,0,-3,2,7,2,-1,1757008684920191526
0,7.175379276,20250904135804921,None,1,1,1,2,-4,-4,0,-1,1757008684920392036
0,7.182712078,20250904135804928,None,-1,2,-2,-4,-2,3,-2,2,1757008684927703142
0,7.182886839,20250904135804928,None,-3,-2,0,-2,-3,-12,-3,-2,1757008684927884578
0,7.197585821,20250904135804943,None,-2,-1,1,-3,-1,-5,-3,2,1757008684942607164
0,7.19776535,20250904135804943,None,1,-4,-3,-2,2,3,2,1,1757008684942778348
0,7.204854011,20250904135804950,None,-3,-1,-2,-2,-3,-1,-5,-3,1757008684949950933
0,7.205034256,20250904135804950,None,-8,-7,1,0,3,3,3,-2,1757008684950049877
0,7.220107078,20250904135804965,None,7,1,-2,-1,-3,0,-2,4,1757008684965127229
0,7.220304251,20250904135804966,None,1,0,-1,3,0,-2,-4,-4,1757008684965279340
0,7.227805614,20250904135804973,None,0,2,2,1,2,1,2,-3,1757008684972735643
0,7.228014469,20250904135804973,None,-1,2,1,-1,-3,0,-9,-1,1757008684972918272
0,7.235234499,20250904135804980,None,-5,-3,-1,-3,-1,-1,3,-1,1757008684980214357
0,7.235415697,20250904135804981,None,-3,0,-3,-3,-3,-1,-2,-3,1757008684980439662
0,7.242766857,20250904135804988,None,2,1,1,0,0,-2,-1,-1,1757008684987730264
0,7.242942333,20250904135804988,None,0,-5,3,0,-2,-4,-3,-2,1757008684987917423
0,7.257756233,20250904135805003,None,-5,0,-3,3,0,-2,-2,-4,1757008685002712249
0,7.257941484,20250904135805003,None,-1,-2,-5,0,-2,2,3,0,1757008685002895116
0,7.265265941,20250904135805011,None,-1,-3,0,-2,0,-1,-3,-3,1757008685010209798
0,7.265438795,20250904135805011,None,-3,-3,-3,-2,0,2,7,4,1757008685010430574
0,7.280204534,20250904135805025,None,1,-2,-1,-1,3,0,-3,-4,1757008685025267362
0,7.280425072,20250904135805026,None,-4,-4,0,-1,-4,2,-2,0,1757008685025446891
0,7.287790298,20250904135805033,None,1,-2,-4,-2,-1,3,3,3,1757008685032687425
0,7.287952661,20250904135805033,None,0,4,0,-1,-4,-4,-1,-1,1757008685032865524
0,7.295245647,20250904135805041,None,-7,0,-2,-3,-4,-2,-1,0,1757008685040264129
0,7.295425415,20250904135805041,None,3,3,0,0,-1,-1,1,-2,1757008685040443658
0,7.302637815,20250904135805048,None,-3,-2,1,1,2,-5,-1,-3,1757008685047635793
0,7.302816868,20250904135805048,None,0,-1,1,3,1,8,2,0,1757008685047803878
0,7.317341328,20250904135805063,None,2,0,0,-1,-2,-8,0,0,1757008685062515258
0,7.317524671,20250904135805063,None,-1,-1,-2,-1,-3,3,2,6,1757008685062619924
0,7.324883699,20250904135805070,None,-3,-2,-2,-2,-3,-9,-11,-5,1757008685070157527
0,7.324961424,20250904135805070,None,-2,-4,-4,1,1,2,11,2,1757008685070357561
0,7.339890718,20250904135805085,None,-1,-1,0,0,-1,2,-2,3,1757008685085126876
0,7.340071678,20250904135805085,None,-9,2,-2,-5,-1,-2,-4,1,1757008685085283279
0,7.34748292,20250904135805093,None,5,-3,-3,-1,2,-1,2,-1,1757008685092748880
0,7.347596884,20250904135805093,None,1,0,0,1,-5,0,3,-1,1757008685092941045
0,7.355121374,20250904135805100,None,-2,-4,0,1,1,1,1,0,1757008685100150346
0,7.3552880290000004,20250904135805101,None,-1,3,-1,-1,-1,2,2,-2,1757008685100349903
0,7.370289326,20250904135805116,None,-1,-3,1,2,0,-6,-12,2,1757008685115288734
0,7.370485067,20250904135805116,None,-13,-5,-3,0,-3,0,0,-5,1757008685115478992
0,7.377665996,20250904135805123,None,4,0,2,1,2,0,4,-1,1757008685122659444
0,7.3778419490000005,20250904135805123,None,-1,1,-1,1,-4,4,2,3,1757008685122843027
0,7.385069609,20250904135805130,None,-3,1,1,1,-2,1,1,0,1757008685130177021
0,7.385231972,20250904135805130,None,0,0,-1,-2,1,-1,0,-1,1757008685130399465
0,7.400159836,20250904135805145,None,-2,-2,0,-1,-2,-2,-4,-9,1757008685145298719
0,7.400326729,20250904135805146,None,-4,-1,-3,-5,1,2,1,-1,1757008685145476102
0,7.40774703,20250904135805153,None,0,-5,0,0,1,1,3,0,1757008685152742624
0,7.407920599,20250904135805153,None,-3,2,-2,-2,0,0,-2,1,1757008685152924060
0,7.41536212,20250904135805161,None,1,0,-5,2,-1,-8,0,-4,1757008685160379648
0,7.415577412,20250904135805161,None,-1,0,-2,3,-1,-2,2,3,1757008685160563230
0,7.430303097,20250904135805176,None,-2,-2,-2,-2,-1,0,-3,-5,1757008685175350189
0,7.430478811,20250904135805176,None,3,0,-4,-2,1,1,1,0,1757008685175536394
0,7.438117504,20250904135805183,None,-1,1,-1,0,1,-4,-8,-4,1757008685183067321
0,7.438309908,20250904135805184,None,-1,-3,0,-4,-2,5,4,-1,1757008685183295965
0,7.445548773,20250904135805191,None,2,0,-1,0,-2,4,0,-1,1757008685190541028
0,7.445730209,20250904135805191,None,2,-2,0,-1,1,-7,-2,2,1757008685190748214
0,7.460709333,20250904135805206,None,-9,-3,-4,1,-4,-5,-1,-1,1757008685205530166
0,7.460907459,20250904135805206,None,5,1,0,-5,0,2,2,-1,1757008685205749988
0,7.468060493,20250904135805213,None,-1,-1,0,-3,1,3,2,-2,1757008685213071584
0,7.468263864,20250904135805214,None,-5,-4,-1,-3,0,0,-5,-3,1757008685213289499
0,7.475277185,20250904135805221,None,0,-2,2,-4,-1,0,-1,-2,1757008685220336675
0,7.475444317,20250904135805221,None,2,0,-1,4,-1,-7,0,5,1757008685220506191
0,7.490406513,20250904135805236,None,-1,0,2,-4,-3,-1,4,2,1757008685235373020
0,7.490653992,20250904135805236,None,-1,-1,0,0,1,-1,-3,-4,1757008685235561370
0,7.49799037,20250904135805243,None,-4,-2,-3,-4,2,-2,-4,0,1757008685242867469
0,7.49819088,20250904135805243,None,-1,-1,-1,-1,-2,-1,-16,-4,1757008685243071317
0,7.505117655,20250904135805250,None,-2,-2,-3,-2,0,2,3,-1,1757008685250301361
0,7.505265236,20250904135805251,None,-1,-3,1,-4,1,-1,5,-1,1757008685250478029
0,7.520764589,20250904135805266,None,1,1,-2,1,-2,-5,-6,3,1757008685265589714
0,7.52099514,20250904135805266,None,-1,4,1,-5,3,-3,-5,-3,1757008685265810251
0,7.528172254,20250904135805273,None,-6,1,-2,0,-2,-3,2,1,1757008685273055791
0,7.528390407,20250904135805274,None,4,-2,-1,-2,-1,2,4,-2,1757008685273294925
0,7.53560853,20250904135805281,None,-2,-1,0,3,-1,3,-2,-1,1757008685280489206
0,7.535797834,20250904135805281,None,2,4,1,0,2,-3,-2,-1,1757008685280689954
0,7.550266743,20250904135805296,None,-4,-2,2,0,2,0,-5,4,1757008685295405626
0,7.550431251,20250904135805296,None,1,-1,-1,-2,-1,-1,-4,-1,1757008685295601606
0,7.55762124,20250904135805303,None,-3,2,1,1,-1,-1,-2,2,1757008685302772283
0,7.55777502,20250904135805303,None,-2,1,-2,-1,-3,1,-2,-1,1757008685302956104
0,7.565411568,20250904135805311,None,6,1,0,-3,-4,0,3,0,1757008685310403585
0,7.56565094,20250904135805311,None,3,0,-3,0,0,-4,2,-1,1757008685310598850
0,7.580090523,20250904135805325,None,1,1,2,-2,2,-2,-2,1,1757008685325158834
0,7.580264807,20250904135805326,None,-2,-1,0,4,-6,4,-5,1,1757008685325377702
0,7.58748579,20250904135805333,None,-1,0,-1,2,-3,-7,-1,-2,1757008685332645893
0,7.587655306,20250904135805333,None,-3,-2,-1,-4,-4,1,1,-2,1757008685332793235
0,7.595206022,20250904135805340,None,-3,0,-4,-5,-3,1,1,-4,1757008685340211391
0,7.595368862,20250904135805341,None,0,-1,-5,-1,3,0,-2,-4,1757008685340421676
0,7.609798908,20250904135805355,None,-1,0,-3,1,1,-4,-3,-4,1757008685355170011
0,7.609912157,20250904135805355,None,-1,0,-3,0,2,3,3,1,1757008685355344295
0,7.617100716,20250904135805362,None,1,0,-2,-2,-1,-1,1,2,1757008685362588882
0,7.617201805,20250904135805362,None,3,3,3,1,-1,-1,-5,1,1757008685362709045
0,7.624522924,20250904135805370,None,-5,-4,0,-2,-1,-2,-1,0,1757008685369944810
0,7.624577045,20250904135805370,None,-2,0,-3,-2,-1,0,-2,-2,1757008685370050668
0,7.639512539,20250904135805385,None,1,-3,-1,-1,2,0,-1,-3,1757008685384978532
0,7.639585495,20250904135805385,None,1,0,-3,-4,-1,0,8,0,1757008685385088920
0,7.64672637,20250904135805392,None,-1,-2,0,0,-2,0,-4,-2,1757008685392291307
0,7.646771431,20250904135805392,None,-3,-4,3,2,0,-2,2,2,1757008685392370700
0,7.654146671,20250904135805399,None,0,3,1,2,1,-1,-1,4,1757008685399755239
0,7.654170751,20250904135805399,None,2,4,0,-7,0,-6,-8,-5,1757008685399827957
0,7.6693129540000005,20250904135805415,None,1,-1,-3,-1,-1,-1,2,2,1757008685414816141
0,7.669399261,20250904135805415,None,0,-3,0,3,1,0,0,-5,1757008685414890050
0,7.676711798,20250904135805422,None,2,-2,-2,2,1,-4,-1,0,1757008685422254800
0,7.676786184,20250904135805422,None,2,0,-2,1,1,1,4,0,1757008685422333478
0,7.684226751,20250904135805429,None,-1,0,-1,-1,4,4,-9,-3,1757008685429751873
0,7.684337616,20250904135805430,None,-7,-2,-1,-1,-2,2,5,0,1757008685429831027
0,7.699738502,20250904135805445,None,1,-2,-1,0,-1,-5,-8,0,1757008685445027112
0,7.699949741,20250904135805445,None,-2,1,2,-2,-1,-2,3,-1,1757008685445181369
0,7.707386255,20250904135805453,None,0,1,0,0,0,10,3,1,1757008685452509403
0,7.707848072,20250904135805453,None,-2,-2,-2,-3,-1,-8,-3,-3,1757008685452642917
0,7.714770555,20250904135805460,None,1,-4,-3,0,-3,6,-2,-1,1757008685459914207
0,7.715026617,20250904135805460,None,-5,-2,-1,1,0,3,-2,-1,1757008685460023641
0,7.729976415,20250904135805475,None,4,1,-2,-3,-5,-8,1,-1,1757008685474920988
0,7.730268001,20250904135805476,None,-1,-3,-2,0,-1,-2,3,2,1757008685475049257
0,7.737216472,20250904135805482,None,-2,-2,-1,-2,-1,-3,-2,-4,1757008685482474803
