gt,time_elapsed,current_time,current_task,emg0,emg1,emg2,emg3,emg4,emg5,emg6,emg7,emg_timer_stamp
0,0.03095746,20250904135128398,None,-4,-3,0,-1,-6,-2,-3,-2,1757008288397985219
0,0.031108379,20250904135128398,None,2,-2,0,5,-1,2,-2,-5,1757008288398111581
0,0.038222075,20250904135128405,None,-4,-3,-2,-11,-3,-5,-3,0,1757008288405434846
0,0.038376331,20250904135128405,None,-3,-4,0,1,5,0,3,-6,1757008288405544281
0,0.045926094,20250904135128413,None,1,-3,-1,0,2,1,4,-1,1757008288412983655
0,0.046097755,20250904135128413,None,-6,-2,-1,-2,-3,0,-4,-3,1757008288413141250
0,0.060872078,20250904135128428,None,1,1,-1,-3,0,0,0,1,1757008288427976846
0,0.061020613,20250904135128428,None,-3,0,2,0,-1,0,-1,0,1757008288428116559
0,0.068043947,20250904135128435,None,-2,1,0,2,0,-4,0,-1,1757008288435353279
0,0.068095207,20250904135128435,None,1,-3,-1,-2,-3,-4,-2,-1,1757008288435456037
0,0.075911284,20250904135128443,None,-1,-2,1,-1,1,4,5,2,1757008288443038940
0,0.075988293,20250904135128443,None,-1,-3,0,-4,-2,3,-5,-9,1757008288443242549
0,0.090878725,20250904135128458,None,-4,-3,-2,1,-1,-1,1,-4,1757008288458067655
0,0.090959072,20250904135128458,None,2,0,-3,2,1,1,6,1,1757008288458246707
0,0.09828639,20250904135128465,None,-2,-3,0,0,4,-7,-8,-2,1757008288465537309
0,0.098432779,20250904135128465,None,-2,-2,-3,-6,0,28,1,-2,1757008288465691089
0,0.105870485,20250904135128473,None,-5,-2,1,15,0,-29,-2,-3,1757008288473057270
0,0.105949879,20250904135128473,None,-9,-2,-1,-9,0,16,8,0,1757008288473222970
0,0.120827198,20250904135128488,None,-4,0,-3,1,-1,-3,-6,-1,1757008288487988233
0,0.120923758,20250904135128488,None,2,-1,-1,0,-2,-2,-13,-3,1757008288488149404
0,0.128326178,20250904135128495,None,0,-2,0,-2,-2,5,4,-1,1757008288495541095
0,0.128543377,20250904135128496,None,0,-1,0,8,8,2,-1,-5,1757008288495852947
0,0.135752916,20250904135128503,None,-2,6,0,6,-5,-4,-2,2,1757008288502985954
0,0.135858774,20250904135128503,None,-4,-5,-3,-7,-3,-3,2,-1,1757008288503140211
0,0.150912285,20250904135128518,None,-1,1,-1,-2,-2,1,-5,-3,1757008288518150091
0,0.150994062,20250904135128518,None,6,-3,0,3,2,-6,-1,5,1757008288518283605
0,0.158438921,20250904135128525,None,1,0,0,3,1,0,2,-2,1757008288525701522
0,0.158552408,20250904135128526,None,1,-3,0,-3,-1,7,4,6,1757008288525829315
0,0.165699959,20250904135128533,None,12,-1,-2,-4,-7,-12,-7,-8,1757008288532980918
0,0.165792465,20250904135128533,None,-2,-1,-3,1,3,-6,-2,-5,1757008288533106803
0,0.181334734,20250904135128548,None,2,1,1,-1,-15,-5,0,3,1757008288548072814
0,0.181421995,20250904135128548,None,1,2,0,-5,2,3,-1,0,1757008288548271894
0,0.188364983,20250904135128555,None,3,0,0,-2,-3,2,2,3,1757008288555570125
0,0.188433647,20250904135128555,None,-2,-1,-2,-2,-1,-3,-1,4,1757008288555722236
0,0.195866108,20250904135128563,None,-4,-1,0,-1,-1,-4,2,1,1757008288563112258
0,0.195938587,20250904135128563,None,1,-4,-2,1,-4,0,-1,-9,1757008288563282489
0,0.210924625,20250904135128578,None,0,-3,-1,1,-2,3,1,2,1757008288578145027
0,0.210996151,20250904135128578,None,1,1,-1,11,6,1,-2,2,1757008288578309774
0,0.218384504,20250904135128585,None,-3,0,-1,-6,2,1,-3,-1,1757008288585645198
0,0.218473911,20250904135128585,None,-1,-2,-4,-5,-8,16,4,7,1757008288585824966
0,0.225729227,20250904135128593,None,0,-1,-4,-2,-3,-22,-3,-7,1757008288593040466
0,0.22581625,20250904135128593,None,-4,2,-3,4,-2,3,0,0,1757008288593145370
0,0.240953922,20250904135128608,None,2,3,-2,1,3,6,4,1,1757008288608149290
0,0.241042376,20250904135128608,None,-18,-1,2,5,1,-5,-11,-4,1757008288608384847
0,0.248435974,20250904135128615,None,4,-2,0,-2,0,-4,-5,-3,1757008288615684270
0,0.248564482,20250904135128616,None,-9,-4,-2,-2,-3,-1,-3,-6,1757008288615898847
0,0.255920649,20250904135128623,None,2,-1,-3,2,4,6,17,2,1757008288623145580
0,0.255996227,20250904135128623,None,0,0,1,-4,0,-2,-6,3,1757008288623354911
0,0.271037817,20250904135128638,None,-5,3,0,4,1,2,1,-1,1757008288638269186
0,0.27126193,20250904135128638,None,0,2,2,2,3,3,4,-4,1757008288638467073
0,0.278557777,20250904135128646,None,1,-1,-2,-7,-11,-2,-1,-2,1757008288645718574
0,0.278626919,20250904135128646,None,-2,2,1,-3,-1,-1,1,-3,1757008288645917415
0,0.286063433,20250904135128653,None,-5,-2,-3,2,2,-3,-7,1,1757008288653197050
0,0.286137342,20250904135128653,None,1,-2,-2,-5,-1,0,0,4,1757008288653433322
0,0.300844431,20250904135128668,None,-5,-7,-2,2,1,-1,-3,-4,1757008288668056249
0,0.300896168,20250904135128668,None,0,2,-3,1,5,-1,1,-5,1757008288668208837
0,0.308674336,20250904135128676,None,-2,-1,-2,-2,-9,-1,0,3,1757008288675637006
0,0.30874157,20250904135128676,None,-6,-4,-1,-4,-2,10,6,-2,1757008288676030635
0,0.315953016,20250904135128683,None,0,1,1,2,-2,-10,-7,-2,1757008288683116912
0,0.316059113,20250904135128683,None,-3,1,1,8,2,0,-4,0,1757008288683348178
0,0.331357956,20250904135128698,None,-4,-2,0,-12,0,1,4,2,1757008288698181867
0,0.331561804,20250904135128699,None,-3,-4,3,-9,4,4,-3,-11,1757008288698402166
0,0.338866234,20250904135128706,None,-17,-4,-4,0,-4,-1,-4,-8,1757008288705708503
0,0.339033842,20250904135128706,None,3,2,-1,4,-2,-1,-2,3,1757008288705886125
0,0.346551895,20250904135128714,None,-3,-2,-1,2,4,18,5,1,1757008288713321447
0,0.346749544,20250904135128714,None,0,-2,1,3,1,-13,4,3,1757008288713518381
0,0.361370564,20250904135128728,None,2,1,-1,0,-3,-1,-2,0,1757008288728287458
0,0.361549854,20250904135128729,None,-3,0,1,4,1,4,3,-2,1757008288728485345
0,0.369035006,20250904135128736,None,1,-2,-2,-2,-2,0,-3,0,1757008288735841989
0,0.369432688,20250904135128736,None,-4,-3,-4,-4,-2,-2,-2,0,1757008288736016988
0,0.37709856,20250904135128744,None,-2,-4,-1,-2,0,-2,-4,-1,1757008288743792295
0,0.377283096,20250904135128744,None,0,1,-4,-2,-8,1,5,-4,1757008288743996143
0,0.391900539,20250904135128759,None,-3,1,-3,2,-1,1,-2,0,1757008288758489131
0,0.392135382,20250904135128759,None,1,-2,2,0,2,-4,-1,3,1757008288758698701
0,0.399249315,20250904135128766,None,0,-2,0,-2,-6,-1,12,3,1757008288766014099
0,0.399450541,20250904135128766,None,2,-3,0,0,4,4,-19,-5,1757008288766223192
0,0.406914711,20250904135128774,None,5,-1,-1,2,0,-1,2,3,1757008288773575782
0,0.407126665,20250904135128774,None,-4,-2,0,-1,-1,-2,-2,-5,1757008288773772239
0,0.422056198,20250904135128789,None,1,2,5,1,-3,-4,-1,-5,1757008288788472175
0,0.422437906,20250904135128789,None,1,3,0,-1,-1,-1,-2,-11,1757008288788762807
0,0.429490805,20250904135128796,None,18,1,2,6,-2,5,4,6,1757008288796260833
0,0.429674864,20250904135128797,None,-2,-1,-1,-1,-2,-2,1,4,1757008288796471595
0,0.436908007,20250904135128804,None,-2,-1,1,10,-5,-2,-2,1,1757008288803585767
0,0.437107801,20250904135128804,None,-1,0,-2,-10,-4,1,-1,0,1757008288803799629
0,0.452003241,20250904135128819,None,2,0,-3,-15,-7,1,2,4,1757008288818590164
0,0.452240706,20250904135128819,None,-5,0,3,16,6,2,2,1,1757008288818873405
0,0.459138155,20250904135128826,None,4,1,-1,-7,3,0,2,-3,1757008288825899839
0,0.459349394,20250904135128826,None,-1,-3,-1,-1,4,-2,-7,-3,1757008288826117277
0,0.466567516,20250904135128834,None,-8,-4,0,-4,-3,-5,-6,2,1757008288833377599
0,0.466753721,20250904135128834,None,4,2,0,-4,-4,2,8,1,1757008288833567857
0,0.481511831,20250904135128849,None,-2,-1,-1,-1,0,-1,-5,-2,1757008288848306894
0,0.481844425,20250904135128849,None,-2,-2,-1,-3,0,6,-3,-2,1757008288848510026
0,0.488614798,20250904135128856,None,2,-2,-1,-1,-1,-13,-1,-1,1757008288855567932
0,0.488785744,20250904135128856,None,1,-2,-4,-1,0,-1,1,1,1757008288855719327
0,0.496127605,20250904135128863,None,-2,0,-4,-3,4,6,-2,-1,1757008288863139152
0,0.496269941,20250904135128863,None,-4,-2,2,-2,-3,0,-6,2,1757008288863275527
0,0.511639118,20250904135128879,None,-1,3,2,-2,-1,-1,3,4,1757008288878389835
0,0.511867762,20250904135128879,None,0,-3,-2,1,-1,0,-2,-15,1757008288878578186
0,0.519227982,20250904135128886,None,2,1,0,0,0,2,3,1,1757008288885793209
0,0.51949358,20250904135128886,None,-15,1,0,0,4,7,15,1,1757008288885974645
0,0.52645731,20250904135128893,None,4,-2,-1,-9,-7,0,0,-2,1757008288893164634
0,0.52668047,20250904135128894,None,-3,0,0,7,1,-10,-9,-1,1757008288893353939
0,0.541222572,20250904135128908,None,-8,-5,-3,-8,-2,-1,-3,2,1757008288908056735
0,0.541436434,20250904135128908,None,4,3,-3,-3,0,1,1,-6,1757008288908160448
0,0.548679829,20250904135128916,None,2,5,-1,-15,-6,-3,1,5,1757008288915523290
0,0.548886776,20250904135128916,None,-1,-2,-2,10,7,2,1,0,1757008288915616035
0,0.556200981,20250904135128923,None,-4,-3,-1,-1,-8,-3,-4,0,1757008288923034191
0,0.556383133,20250904135128923,None,-4,-1,-3,1,9,1,-1,1,1757008288923136234
0,0.571270227,20250904135128938,None,-1,0,-3,-1,-10,0,-1,-2,1757008288938086032
0,0.571447611,20250904135128938,None,5,0,3,-6,1,-3,0,1,1757008288938187599
0,0.57868886,20250904135128946,None,7,-1,3,6,-1,0,0,-1,1757008288945559978
0,0.578909397,20250904135128946,None,0,1,4,1,3,1,1,2,1757008288945652484
0,0.586310625,20250904135128953,None,0,1,-1,-6,-3,-2,-3,0,1757008288953105211
0,0.586496353,20250904135128953,None,1,-2,-3,-1,-2,-2,-1,1,1757008288953209400
0,0.601293802,20250904135128968,None,-6,-1,-6,-2,-1,1,-3,-6,1757008288968070030
0,0.601470709,20250904135128968,None,-2,-2,-1,0,0,-1,1,-5,1757008288968174695
0,0.609015226,20250904135128976,None,-3,-2,0,-2,-4,3,0,-3,1757008288975721359
0,0.609175205,20250904135128976,None,3,-3,-3,-1,2,-4,0,0,1757008288975892782
0,0.616492033,20250904135128983,None,1,-3,0,-1,-2,18,4,5,1757008288983272075
0,0.616685152,20250904135128984,None,-4,1,0,0,-2,-30,-2,-4,1757008288983446121
0,0.631442547,20250904135128998,None,-4,-3,-6,-4,0,9,1,-1,1757008288998224020
0,0.631626844,20250904135128999,None,8,-3,-2,2,9,10,-5,3,1757008288998420238
0,0.639003754,20250904135129006,None,6,-1,0,0,-1,2,-1,5,1757008289005753517
0,0.639168263,20250904135129006,None,-4,-2,-2,-7,3,-2,4,-2,1757008289005925416
0,0.646606922,20250904135129014,None,-3,-3,0,-1,-3,-9,-11,-2,1757008289013350963
0,0.646808863,20250904135129014,None,-1,-2,-2,-17,-12,-3,5,-1,1757008289013534545
0,0.661502838,20250904135129028,None,0,0,-4,7,-1,0,2,-4,1757008289028329610
0,0.661690712,20250904135129029,None,-11,0,0,-4,-3,1,-1,0,1757008289028507232
0,0.669309616,20250904135129036,None,0,-4,-5,1,1,-1,-24,-8,1757008289035921335
0,0.669504166,20250904135129036,None,6,-2,0,1,-7,-5,-4,0,1757008289036141157
0,0.67640996,20250904135129043,None,-14,-3,0,0,3,4,8,0,1757008289043276786
0,0.676578283,20250904135129044,None,2,1,-2,2,0,-2,-6,7,1757008289043482303
0,0.691527367,20250904135129059,None,-3,1,-2,-4,3,-4,-4,-6,1757008289058273553
0,0.691708326,20250904135129059,None,-2,0,-2,-3,-12,-1,2,-5,1757008289058453083
0,0.699354649,20250904135129066,None,0,-4,-3,-3,1,1,3,-2,1757008289065937519
0,0.699570417,20250904135129067,None,-2,4,1,-2,-6,-2,2,10,1757008289066140651
0,0.706969738,20250904135129074,None,-4,-1,-2,-1,5,1,-1,-1,1757008289073544502
0,0.707166195,20250904135129074,None,-1,1,1,0,-2,2,-2,-3,1757008289073755025
0,0.721973419,20250904135129089,None,-4,-1,-2,-2,0,6,-1,-4,1757008289088522911
0,0.722172499,20250904135129089,None,11,2,2,7,1,-4,0,6,1757008289088745117
0,0.729338646,20250904135129096,None,-2,0,1,-1,-4,1,-2,0,1757008289095967531
0,0.7295506,20250904135129097,None,-4,0,0,5,-5,-3,0,-3,1757008289096183538
0,0.736871004,20250904135129104,None,-3,-1,-3,-5,5,9,1,0,1757008289103497266
0,0.73703599,20250904135129104,None,2,3,2,12,3,3,-1,-5,1757008289103698015
0,0.752021074,20250904135129119,None,-4,1,-1,-15,-4,-21,-6,-4,1757008289118499994
0,0.752236366,20250904135129119,None,-7,-1,-3,0,-2,5,3,-2,1757008289118743658
0,0.759078264,20250904135129126,None,5,-2,-2,4,-1,3,-4,3,1757008289125819683
0,0.759238243,20250904135129126,None,1,2,2,10,4,0,1,-3,1757008289126017332
0,0.766627789,20250904135129134,None,0,2,0,-4,0,3,-3,-6,1757008289133342504
0,0.766842842,20250904135129134,None,6,0,1,0,-5,3,5,6,1757008289133536815
0,0.782064915,20250904135129149,None,6,-1,0,1,4,1,-6,-5,1757008289148730039
0,0.782254219,20250904135129149,None,2,-2,4,-6,-2,-7,3,0,1757008289148958444
0,0.789407492,20250904135129156,None,-4,-3,-3,3,8,6,3,6,1757008289155984640
0,0.789644957,20250904135129157,None,2,-2,0,-5,-12,-2,6,5,1757008289156196355
0,0.796726465,20250904135129164,None,-5,0,-2,1,-2,-2,-3,-5,1757008289163476228
0,0.796901464,20250904135129164,None,-3,-7,-3,2,3,-4,-3,-2,1757008289163683414
0,0.812235117,20250904135129179,None,-5,1,0,1,-7,0,14,0,1757008289178693056
0,0.812501907,20250904135129180,None,-5,2,2,-1,-4,0,-5,-4,1757008289178954839
0,0.81933856,20250904135129186,None,11,5,1,10,2,1,2,-7,1757008289186012268
0,0.819545507,20250904135129187,None,-4,0,-2,-18,-4,-6,-1,7,1757008289186276912
0,0.826907873,20250904135129194,None,-8,-3,0,1,-1,4,0,3,1757008289193473100
0,0.827129841,20250904135129194,None,4,0,-1,0,4,-6,-5,-6,1757008289193951845
0,0.842417002,20250904135129209,None,-2,-4,-2,-1,-3,-6,4,-1,1757008289208788633
0,0.842699289,20250904135129210,None,-4,0,4,11,2,8,2,-1,1757008289209045648
0,0.849410296,20250904135129216,None,1,-1,-1,-10,-4,-10,1,-2,1757008289215971231
0,0.849610567,20250904135129217,None,-5,-2,-2,-6,2,5,2,1,1757008289216178417
0,0.856548548,20250904135129224,None,8,0,5,2,3,28,-1,9,1757008289223306655
0,0.856756926,20250904135129224,None,2,0,-4,8,-4,-36,6,-9,1757008289223485708
0,0.87193203,20250904135129239,None,0,-2,-3,-2,4,5,-3,-8,1757008289238472700
0,0.872183561,20250904135129239,None,-4,-4,-2,1,-2,4,-2,1,1757008289238700628
0,0.879053116,20250904135129246,None,0,0,0,-3,-2,3,1,0,1757008289245797872
0,0.879215002,20250904135129246,None,-1,-3,3,7,3,0,-2,0,1757008289245977878
0,0.894452572,20250904135129261,None,5,0,-4,0,0,0,-3,3,1757008289260933399
0,0.894711256,20250904135129262,None,5,1,-1,4,1,2,6,1,1757008289261187314
0,0.901875734,20250904135129269,None,0,0,-2,-2,1,0,-5,-5,1757008289268421649
0,0.902070522,20250904135129269,None,-3,2,1,2,-5,-10,-12,-2,1757008289268628597
0,0.909481049,20250904135129276,None,-1,1,1,-4,8,-1,4,-3,1757008289275971412
0,0.909705639,20250904135129277,None,-3,-4,-2,-1,-4,9,6,-4,1757008289276193141
0,0.924632549,20250904135129292,None,2,2,2,10,-2,-11,-8,-9,1757008289291002273
0,0.924931288,20250904135129292,None,-5,-3,-1,2,1,3,-1,-2,1757008289291312217
0,0.931865215,20250904135129299,None,3,-2,-2,-3,-3,-3,0,-1,1757008289298491477
0,0.932385206,20250904135129299,None,-1,-1,-1,-3,4,0,-1,0,1757008289298687458
0,0.939247847,20250904135129306,None,-2,-4,-3,11,5,1,8,3,1757008289305890083
0,0.939445496,20250904135129306,None,1,-3,1,-11,-9,-5,-10,-6,1757008289306096792
0,0.954379082,20250904135129321,None,-2,-2,-1,-9,-5,1,-1,-5,1757008289320914745
0,0.954651594,20250904135129322,None,-1,-1,0,-4,4,4,-25,-3,1757008289321141004
0,0.961466312,20250904135129328,None,-5,-3,-4,3,-8,25,1,1,1757008289328299760
0,0.961648226,20250904135129329,None,-18,0,1,3,-4,-4,3,-4,1757008289328491926
0,0.968417168,20250904135129335,None,5,-2,1,4,3,0,-3,5,1757008289335534811
0,0.96852994,20250904135129336,None,-3,-3,-2,-7,3,17,6,-6,1757008289335656881
0,0.983594894,20250904135129351,None,-5,-3,0,-2,-2,-11,0,5,1757008289350613594
0,0.98373127,20250904135129351,None,1,1,-3,2,-4,-8,-10,-6,1757008289350759267
0,0.99130559,20250904135129358,None,1,-2,0,1,1,3,-2,-3,1757008289358108758
0,0.991500139,20250904135129358,None,-11,1,-1,-2,-4,1,-1,-2,1757008289358249425
0,0.99935317,20250904135129366,None,-3,2,-3,0,1,-4,1,2,1757008289365996360
0,0.999552488,20250904135129367,None,-1,4,3,0,2,0,-1,-1,1757008289366197824
0,1.014336348,20250904135129381,None,-1,-6,1,-1,2,1,-2,-3,1757008289380973339
0,1.014532566,20250904135129382,None,2,0,-1,0,4,1,2,0,1757008289381179094
0,1.021902084,20250904135129389,None,-7,-2,-3,-1,3,7,-2,-3,1757008289388550281
0,1.022139072,20250904135129389,None,11,4,-1,3,-10,-14,-5,11,1757008289388746023
0,1.029275894,20250904135129396,None,-2,3,-2,-8,-12,-6,3,-9,1757008289395888328
0,1.029499292,20250904135129396,None,-2,1,1,1,8,4,-1,-6,1757008289396102428
0,1.044093609,20250904135129411,None,3,-5,-5,-2,2,-4,-1,3,1757008289410797357
0,1.044274807,20250904135129411,None,0,2,-2,-11,0,5,1,-1,1757008289410994529
0,1.051379681,20250904135129418,None,-1,-2,0,2,2,1,4,2,1757008289418251991
0,1.051509857,20250904135129418,None,8,2,4,3,-2,-48,-3,1,1757008289418397903
0,1.059099197,20250904135129426,None,-1,-3,-3,2,3,-1,-5,-2,1757008289425832509
0,1.059373379,20250904135129426,None,1,2,0,7,-4,-3,-3,0,1757008289426033973
0,1.074165344,20250904135129441,None,-3,-1,3,0,-1,5,2,-4,1757008289440901279
0,1.07436204,20250904135129441,None,0,-1,-3,-4,-6,3,-2,-1,1757008289441104412
0,1.081790209,20250904135129449,None,9,1,1,-2,6,-1,-4,2,1757008289448590517
0,1.081972122,20250904135129449,None,0,-1,1,2,-3,-2,3,-4,1757008289448770046
0,1.089293003,20250904135129456,None,0,-3,-1,1,-2,0,10,1,1757008289455944299
0,1.08947897,20250904135129456,None,0,-2,-1,-3,3,5,-14,-2,1757008289456144809
0,1.104216576,20250904135129471,None,-2,-1,-1,-1,-3,-28,0,-2,1757008289470885992
0,1.104412079,20250904135129471,None,0,-4,1,-1,2,3,2,3,1757008289471083164
0,1.111187458,20250904135129478,None,-1,-3,-3,0,-3,0,5,4,1757008289478185653
0,1.111326933,20250904135129478,None,-2,-2,-2,0,3,2,0,-2,1757008289478353261
0,1.118545294,20250904135129486,None,-1,-3,-2,-1,-17,4,-2,-12,1757008289485688209
0,1.118683338,20250904135129486,None,0,-2,-3,-1,-1,-7,-7,-3,1757008289485826492
0,1.133744001,20250904135129501,None,0,0,0,-2,-2,-6,-3,0,1757008289500727415
0,1.133937836,20250904135129501,None,0,-2,2,2,5,3,5,0,1757008289500925779
0,1.140971184,20250904135129508,None,-1,-2,2,13,-2,0,0,1,1757008289508157968
0,1.141075134,20250904135129508,None,-4,-3,-6,-20,-1,7,5,3,1757008289508351087
0,1.1486570839999999,20250904135129516,None,0,-1,-2,-3,1,0,-4,5,1757008289515690088
0,1.148877144,20250904135129516,None,2,1,3,18,5,-67,-4,0,1757008289515854120
0,1.163291454,20250904135129530,None,-10,1,-1,-5,-3,4,2,-6,1757008289530475378
0,1.163429737,20250904135129530,None,10,0,-4,7,4,-3,-2,-1,1757008289530611991
0,1.170969486,20250904135129538,None,-1,-2,1,-9,0,0,1,-3,1757008289538073301
0,1.171099901,20250904135129538,None,4,1,0,0,-5,0,2,1,1757008289538234472
0,1.178313732,20250904135129545,None,-2,1,-1,2,-2,-7,-4,-1,1757008289545514583
0,1.178415537,20250904135129545,None,1,0,-2,1,-2,3,-3,-2,1757008289545675754
0,1.1935122009999999,20250904135129560,None,-4,-3,-2,0,2,-1,-2,-1,1757008289560604095
0,1.193695545,20250904135129561,None,-3,-1,-3,-1,3,2,0,-2,1757008289560771465
0,1.200830698,20250904135129568,None,2,0,-3,-2,-5,-9,-11,6,1757008289567956447
0,1.2009830479999999,20250904135129568,None,-1,-2,3,2,0,1,2,-5,1757008289568080663
0,1.208324194,20250904135129575,None,-2,0,-1,-3,-1,1,-2,-8,1757008289575513601
0,1.208436966,20250904135129575,None,1,-3,-2,-2,-1,6,5,0,1757008289575647592
0,1.223528624,20250904135129591,None,2,-2,0,2,0,-16,-5,1,1757008289590632200
0,1.223621845,20250904135129591,None,-2,-3,-3,-5,1,-3,-2,0,1757008289590810775
0,1.231027126,20250904135129598,None,-1,0,3,-1,-7,6,4,-2,1757008289598190307
0,1.231116295,20250904135129598,None,-5,-3,-4,-8,-13,-3,-6,-4,1757008289598420143
0,1.238232374,20250904135129605,None,4,2,0,15,12,5,-1,1,1757008289605427026
0,1.238353729,20250904135129605,None,-1,-2,-1,-21,-4,1,3,2,1757008289605558633
0,1.253380299,20250904135129620,None,-4,-5,-2,3,9,5,-1,-2,1757008289620506525
0,1.253513336,20250904135129620,None,1,1,-3,4,-6,-4,-3,-3,1757008289620638608
0,1.260649443,20250904135129628,None,-8,-3,-1,5,3,-6,12,-1,1757008289627944469
0,1.260755539,20250904135129628,None,3,-1,2,-5,-4,-5,-11,4,1757008289628048658
0,1.2682752609999999,20250904135129635,None,15,-1,0,-2,2,3,-3,7,1757008289635473012
0,1.268360376,20250904135129635,None,0,1,-4,-3,2,1,-2,-7,1757008289635596513
0,1.28330183,20250904135129650,None,-4,-2,0,-1,-4,-4,-1,-2,1757008289650377988
0,1.283450365,20250904135129650,None,2,0,2,2,-5,-4,2,11,1757008289650473833
0,1.290993691,20250904135129658,None,1,3,-1,-7,-1,2,0,-11,1757008289657940149
0,1.291197538,20250904135129658,None,5,4,5,7,1,-12,-10,0,1757008289658046483
0,1.298491716,20250904135129665,None,-5,2,-1,-1,2,2,-2,-6,1757008289665462493
0,1.298691511,20250904135129666,None,-8,0,-2,-6,-3,-5,-1,-2,1757008289665574312
0,1.313837528,20250904135129681,None,0,-1,2,1,-3,-1,-4,0,1757008289680714845
0,1.314033985,20250904135129681,None,7,-1,1,-3,-4,-3,-4,3,1757008289680918693
0,1.321266174,20250904135129688,None,1,0,-5,-2,-5,-2,2,0,1757008289688210964
0,1.321444511,20250904135129688,None,-9,-4,-2,4,2,2,-2,-2,1757008289688439130
0,1.32844615,20250904135129695,None,1,0,-1,0,-6,-7,1,-1,1757008289695594310
0,1.328582287,20250904135129696,None,0,3,-1,0,9,6,-5,-2,1757008289695749998
0,1.3439075950000001,20250904135129711,None,-4,-2,0,-1,-4,1,7,0,1757008289710767269
0,1.34407115,20250904135129711,None,2,1,0,-3,1,5,2,-1,1757008289710961580
0,1.351318121,20250904135129718,None,-3,0,-2,13,2,-11,-8,0,1757008289718223810
0,1.351467609,20250904135129718,None,0,0,1,-12,-7,-15,-5,-1,1757008289718429803
0,1.358703852,20250904135129726,None,0,-1,1,-4,4,-35,-3,-3,1757008289725639581
0,1.358906508,20250904135129726,None,-1,-1,0,4,3,2,4,3,1757008289725809097
0,1.3736233709999999,20250904135129741,None,2,-1,-2,3,3,-1,-3,-3,1757008289740629911
0,1.3737919330000001,20250904135129741,None,6,1,-1,-5,1,5,0,0,1757008289740782499
0,1.381092548,20250904135129748,None,-7,-1,-4,1,-2,-2,-4,-3,1757008289748098850
0,1.3812263009999999,20250904135129748,None,0,-5,0,0,-1,4,3,0,1757008289748236894
0,1.388549566,20250904135129756,None,-17,-3,0,-5,6,3,4,-5,1757008289755655527
0,1.388660431,20250904135129756,None,-2,-1,-1,5,-6,-6,-4,0,1757008289755776405
0,1.4035744669999999,20250904135129771,None,-4,-1,2,-3,-3,-4,-2,2,1757008289770661115
0,1.40367651,20250904135129771,None,2,2,0,-2,1,-3,-1,-4,1757008289770782470
0,1.411160708,20250904135129778,None,-4,-1,1,0,4,-4,-7,-10,1757008289778174877
0,1.411283731,20250904135129778,None,-10,-3,3,3,2,-5,2,-7,1757008289778316259
0,1.418580294,20250904135129786,None,4,2,-1,6,0,0,-5,9,1757008289785667419
0,1.418692112,20250904135129786,None,1,1,-3,2,-1,2,0,1,1757008289785791635
0,1.4336216450000001,20250904135129801,None,5,-1,2,-2,-3,-2,-1,-2,1757008289800646543
0,1.43376255,20250904135129801,None,0,-1,-1,-1,3,-3,-5,-1,1757008289800777912
0,1.441108704,20250904135129808,None,0,-2,-1,-6,-4,-5,-2,-1,1757008289808199882
0,1.4412038329999999,20250904135129808,None,0,-2,2,3,0,3,0,0,1757008289808337211
0,1.448580503,20250904135129816,None,7,1,0,-3,4,3,0,-1,1757008289815673112
0,1.4487295150000001,20250904135129816,None,-6,-5,-2,4,-1,-5,2,-3,1757008289815789461
0,1.464077234,20250904135129831,None,4,0,0,-11,-3,-4,-3,-2,1757008289831142425
0,1.464179039,20250904135129831,None,-2,0,-4,-3,-6,-3,-2,-3,1757008289831256151
0,1.471090794,20250904135129838,None,-3,-1,-4,-18,-3,56,2,-3,1757008289838112831
0,1.471205711,20250904135129838,None,-7,-5,-3,3,0,1,-1,-3,1757008289838261842
0,1.478675604,20250904135129846,None,-1,-3,0,0,1,19,-2,0,1757008289845705032
0,1.47885251,20250904135129846,None,5,2,1,2,-1,-23,-2,0,1757008289845835447
0,1.4938321110000001,20250904135129861,None,-2,-2,-2,-1,2,9,1,5,1757008289860764503
0,1.493998766,20250904135129861,None,-9,-7,-4,-5,-5,0,-2,-2,1757008289860952854
0,1.501425743,20250904135129868,None,3,0,-3,3,-2,5,16,-3,1757008289868405818
0,1.501600504,20250904135129869,None,5,-1,0,-4,-1,-3,-15,7,1757008289868590116
0,1.508922815,20250904135129876,None,-2,1,0,-1,-1,-2,-1,-5,1757008289875872611
0,1.5090882780000001,20250904135129876,None,-11,0,2,4,3,2,-1,-10,1757008289876062393
0,1.523907661,20250904135129891,None,9,-1,-2,-4,-7,-3,1,-1,1757008289890843629
0,1.5244266990000002,20250904135129891,None,-6,0,-2,-2,-2,2,0,1,1757008289891040325
0,1.531365633,20250904135129898,None,-5,0,1,-1,2,1,-2,5,1757008289898339986
0,1.5315330029999998,20250904135129899,None,5,1,0,0,1,0,-2,0,1757008289898516893
0,1.53887248,20250904135129906,None,-3,-1,-1,-9,3,-5,2,2,1757008289905815362
0,1.539041519,20250904135129906,None,-2,-3,-5,-2,-5,-4,-2,1,1757008289905993700
0,1.554026127,20250904135129921,None,-2,3,0,2,0,1,-4,-1,1757008289920908451
0,1.5542058939999999,20250904135129921,None,1,0,-1,6,8,4,0,-1,1757008289921117782
0,1.561338425,20250904135129928,None,1,0,3,-10,-16,-8,-8,-1,1757008289928356647
0,1.561517,20250904135129928,None,-7,-1,-1,0,3,2,1,-4,1757008289928539991
0,1.568930626,20250904135129936,None,3,-1,1,10,3,-3,-8,-1,1757008289935870409
0,1.569111109,20250904135129936,None,-3,-5,-9,-17,-3,0,0,-4,1757008289936058521
0,1.583878756,20250904135129951,None,-7,-4,-1,-6,-1,-14,3,-6,1757008289950815439
0,1.584041357,20250904135129951,None,-1,1,-1,2,1,8,5,-1,1757008289951001167
0,1.591387987,20250904135129958,None,0,-1,0,-6,-9,-8,-5,1,1757008289958364725
0,1.591589451,20250904135129959,None,-7,-1,2,8,4,1,1,-5,1757008289958546876
0,1.5988399979999999,20250904135129966,None,8,2,2,5,4,2,-2,1,1757008289965791463
0,1.599010468,20250904135129966,None,1,-2,-1,-4,-5,-1,-3,0,1757008289965971231
0,1.614015102,20250904135129981,None,-1,-1,-1,-5,1,-1,0,-4,1757008289980915307
0,1.614210367,20250904135129981,None,-1,-2,0,-1,-1,3,4,1,1757008289981112718
0,1.621250629,20250904135129988,None,2,-1,-1,5,-2,-4,-2,-4,1757008289988301992
0,1.621379137,20250904135129988,None,-1,-3,-1,-9,-1,-4,-2,8,1757008289988456249
0,1.628623724,20250904135129996,None,0,0,-2,4,-5,-10,-5,-6,1757008289995767116
0,1.6287486549999999,20250904135129996,None,-3,-3,-3,1,1,3,-3,-9,1757008289995918273
0,1.643929243,20250904135130011,None,11,0,1,1,3,4,-1,3,1757008290010858058
0,1.644100428,20250904135130011,None,2,1,4,-1,0,2,1,3,1757008290011053800
0,1.651210785,20250904135130018,None,3,4,1,-4,-6,-1,0,3,1757008290018164396
0,1.6513998509999999,20250904135130018,None,-4,3,-2,4,1,-1,1,0,1757008290018366098
0,1.65867281,20250904135130026,None,-3,-3,-1,-1,2,-4,-9,-1,1757008290025647401
0,1.659095049,20250904135130026,None,-5,-3,0,-3,-1,-2,-6,0,1757008290025825262
0,1.673341513,20250904135130040,None,-1,0,-3,0,-3,-1,-4,-2,1757008290040448188
0,1.6734898089999999,20250904135130040,None,4,0,4,-2,-2,0,-2,-2,1757008290040550708
0,1.680944443,20250904135130048,None,-1,-3,1,7,2,5,-1,-1,1757008290047939538
0,1.681128979,20250904135130048,None,-5,1,-2,-5,-13,-1,-2,-5,1757008290048065900
0,1.6884787079999999,20250904135130055,None,0,-3,0,-8,6,4,-5,-2,1757008290055507898
0,1.6886806490000001,20250904135130056,None,-3,-2,-1,4,-4,-3,3,-1,1757008290055616140
0,1.7034964559999999,20250904135130070,None,-9,-2,-2,-3,-1,-4,-1,-2,1757008290070506334
0,1.703676224,20250904135130071,None,5,-1,-2,-2,-2,-2,-4,2,1757008290070642471
0,1.7108674050000001,20250904135130078,None,-4,-5,-4,-4,-1,53,1,-2,1757008290077889442
0,1.711033106,20250904135130078,None,-1,-2,-2,0,0,3,-1,2,1757008290077987432
0,1.718736649,20250904135130086,None,-1,-2,-1,-3,4,1,-1,-2,1757008290085697889
0,1.7189395429999998,20250904135130086,None,-1,0,-1,-4,-1,-1,-1,0,1757008290085896730
0,1.73370266,20250904135130101,None,5,-1,-1,1,-3,4,16,0,1757008290100677013
0,1.733929157,20250904135130101,None,0,2,-1,6,0,1,-4,-3,1757008290100863218
0,1.7413642409999999,20250904135130108,None,-18,-3,0,-13,-1,-2,-5,-7,1757008290108338594
0,1.7415404319999999,20250904135130109,None,14,3,0,12,5,-2,-5,0,1757008290108519315
0,1.7488389020000001,20250904135130116,None,3,3,1,-3,-4,24,3,-1,1757008290115768671
0,1.749073982,20250904135130116,None,1,-3,0,-2,-2,-40,0,5,1757008290115950822
0,1.763505697,20250904135130130,None,-4,0,1,-1,1,10,0,0,1757008290130613088
0,1.763615847,20250904135130131,None,-5,-3,0,-10,-7,-4,-2,-2,1757008290130744218
0,1.7710344789999999,20250904135130138,None,1,2,3,4,3,7,6,-5,1757008290138050079
0,1.771199703,20250904135130138,None,-3,-4,-4,-7,-4,-3,-4,10,1757008290138150453
0,1.778751135,20250904135130146,None,-2,-2,2,6,3,1,-4,-3,1757008290145739078
0,1.778951645,20250904135130146,None,0,-1,-1,12,3,-2,0,-4,1757008290145921707
0,1.793887615,20250904135130161,None,-1,-1,1,-7,-4,-2,0,-2,1757008290160796165
0,1.7940742969999999,20250904135130161,None,0,-2,-5,-13,1,7,3,0,1757008290161020278
0,1.8013348580000001,20250904135130168,None,3,0,1,8,-5,-6,1,-1,1757008290168314695
0,1.801503897,20250904135130168,None,8,0,1,2,-1,1,3,2,1757008290168488740
0,1.809024572,20250904135130176,None,-2,1,-2,2,0,0,9,0,1757008290175799131
0,1.809206724,20250904135130176,None,0,1,2,-4,-3,-6,-10,0,1757008290175972700
0,1.824485779,20250904135130191,None,-12,-1,-5,-1,0,-2,-5,-1,1757008290191003322
0,1.82468915,20250904135130192,None,6,-1,-4,1,-7,-2,3,1,1757008290191221237
0,1.831669569,20250904135130199,None,-1,-3,-4,15,4,1,1,-1,1757008290198402166
0,1.831885576,20250904135130199,None,-7,-4,-5,-23,-4,37,0,-6,1757008290198589324
0,1.8468656540000001,20250904135130214,None,4,-3,-1,4,4,0,4,0,1757008290213581800
0,1.847054005,20250904135130214,None,-4,-2,-5,1,4,3,1,-3,1757008290213755607
0,1.854498148,20250904135130221,None,16,2,0,-5,-9,-5,-4,9,1757008290221003293
0,1.854695797,20250904135130222,None,1,1,0,1,4,2,0,3,1757008290221213102
0,1.861453772,20250904135130228,None,-1,0,0,4,3,-2,-5,-10,1757008290228367805
0,1.861622095,20250904135130229,None,-3,-1,-4,-13,-5,2,-3,-6,1757008290228540182
0,1.876615047,20250904135130244,None,-2,1,2,0,1,-5,3,5,1757008290243448495
0,1.8768661020000001,20250904135130244,None,2,0,0,0,-4,-9,-1,1,1757008290243641138
0,1.884440184,20250904135130251,None,1,-4,-1,3,3,5,6,2,1757008290251075506
0,1.884675026,20250904135130252,None,-4,-1,-2,0,-4,0,-9,-2,1757008290251286268
0,1.892074108,20250904135130259,None,-8,-3,-4,20,10,5,0,-3,1757008290258550882
0,1.892412424,20250904135130259,None,3,-1,1,-12,-6,-39,-4,-8,1757008290258742094
0,1.9071831700000001,20250904135130274,None,-8,1,-6,-6,-10,0,-13,-3,1757008290273663759
0,1.907423496,20250904135130274,None,-5,-4,1,0,4,3,-2,2,1757008290273914098
0,1.9142107959999999,20250904135130281,None,2,-1,1,4,4,3,1,-2,1757008290280905008
0,1.914401054,20250904135130281,None,2,-2,0,4,1,1,7,-3,1757008290281082868
0,1.922103405,20250904135130289,None,-2,0,-1,-2,-1,4,-6,1,1757008290288509368
0,1.922478914,20250904135130289,None,2,0,-3,-6,1,-4,1,1,1757008290288714647
0,1.937081337,20250904135130304,None,-3,-2,-2,-4,-2,0,4,0,1757008290303599596
0,1.937352181,20250904135130304,None,2,-1,3,2,0,1,-4,2,1757008290303815364
0,1.9439771179999998,20250904135130311,None,1,-1,-1,3,-7,-2,2,2,1757008290310870409
0,1.9441165919999999,20250904135130311,None,1,-1,-3,-2,1,-1,-1,-1,1757008290311048984
0,1.951625824,20250904135130319,None,1,-1,-1,0,-1,0,1,-1,1757008290318351030
0,1.951860905,20250904135130319,None,-6,-4,1,-2,2,2,-3,-1,1757008290318739175
0,1.966411352,20250904135130333,None,-6,0,0,3,2,0,6,2,1757008290333413839
0,1.966624022,20250904135130334,None,2,1,0,-5,-1,0,-3,-10,1757008290333621025
0,1.973565817,20250904135130341,None,2,-2,-1,0,-1,-4,-10,0,1757008290340810298
0,1.9736428259999999,20250904135130341,None,-30,-6,1,-2,-2,-7,-5,-6,1757008290340999126
0,1.981142044,20250904135130348,None,11,-2,-2,-7,7,14,1,2,1757008290348382234
0,1.981247902,20250904135130348,None,-1,2,-3,4,-13,-4,-2,1,1757008290348577499
0,1.9964380259999999,20250904135130363,None,-3,-2,-2,-3,1,2,1,-1,1757008290363366842
0,1.99663353,20250904135130364,None,-7,-5,-7,-3,5,5,-3,-1,1757008290363571882
0,2.003876448,20250904135130371,None,-2,-3,1,-4,1,0,-1,-3,1757008290370829343
0,2.004043102,20250904135130371,None,-2,-1,-1,10,4,-2,0,2,1757008290371007204
0,2.011422157,20250904135130378,None,-3,0,-1,-15,0,-1,0,0,1757008290378384351
0,2.011603355,20250904135130379,None,2,-2,2,3,-2,2,-4,-3,1757008290378571510
0,2.026299238,20250904135130393,None,2,1,-3,1,-3,-5,-5,0,1757008290393327951
0,2.026500702,20250904135130393,None,-1,-1,3,3,-2,22,0,-2,1757008290393558263
0,2.033900023,20250904135130401,None,-4,-3,-2,0,-1,-32,2,-2,1757008290400717735
0,2.034112453,20250904135130401,None,-3,-2,-2,-2,2,3,-6,-2,1757008290400829792
0,2.041282892,20250904135130408,None,-2,-4,-2,-3,0,3,-4,-1,1757008290408144950
0,2.041484833,20250904135130408,None,1,1,2,0,-5,9,0,1,1757008290408250093
0,2.056451321,20250904135130423,None,-3,1,0,-4,-3,-3,1,-2,1757008290423199415
0,2.056644678,20250904135130424,None,0,0,-5,0,3,1,1,-1,1757008290423360347
0,2.06369853,20250904135130431,None,4,-1,3,-3,-3,-1,1,4,1757008290430626153
0,2.063924789,20250904135130431,None,0,0,-3,2,2,2,-4,-15,1757008290430742502
0,2.07115078,20250904135130438,None,-6,0,-3,-2,-1,0,-2,8,1757008290438133239
0,2.071338415,20250904135130438,None,-4,-3,-1,-2,-4,-1,9,0,1757008290438268661
0,2.086205959,20250904135130453,None,-3,-1,-1,2,4,3,-14,-2,1757008290453183412
0,2.086407185,20250904135130453,None,2,0,-1,-2,-7,-12,-1,3,1757008290453331947
0,2.093621969,20250904135130461,None,-4,-1,0,-8,-7,-1,3,0,1757008290460629463
0,2.093813896,20250904135130461,None,10,2,3,3,1,3,5,7,1757008290460745811
0,2.101082563,20250904135130468,None,0,-2,-3,-2,4,-5,-10,-3,1757008290468139410
0,2.101365089,20250904135130468,None,-2,0,-2,2,-1,-1,1,2,1757008290468249320
0,2.116234779,20250904135130483,None,0,1,-2,1,4,-30,2,-1,1757008290483157873
0,2.116411924,20250904135130483,None,2,-2,-1,0,-1,-1,-6,-1,1757008290483255147
0,2.123589039,20250904135130491,None,-1,-4,-3,-2,-2,2,1,1,1757008290490634918
0,2.123752832,20250904135130491,None,-2,0,0,-1,4,5,3,0,1757008290490763425
0,2.131003618,20250904135130498,None,1,0,2,10,-2,-4,-3,-3,1757008290498095512
0,2.131164789,20250904135130498,None,-4,-1,1,-12,-2,-2,0,0,1757008290498245716
0,2.146458626,20250904135130513,None,4,-4,-1,-5,-6,-2,-1,0,1757008290513222217
0,2.146790981,20250904135130514,None,5,-1,-1,2,0,-4,-5,0,1757008290513362169
0,2.153817415,20250904135130521,None,-2,-1,0,2,2,0,3,0,1757008290520692825
0,2.153979063,20250904135130521,None,-4,-5,2,4,-2,-4,-1,-1,1757008290520834207
0,2.161257744,20250904135130528,None,-2,-2,-2,3,2,0,0,-2,1757008290528142452
0,2.161432505,20250904135130528,None,-4,-5,-4,-1,-9,-4,-3,0,1757008290528248310
0,2.176116943,20250904135130543,None,0,0,-1,2,6,16,2,5,1757008290543104171
0,2.176255941,20250904135130543,None,-2,-1,-1,-3,-1,-32,-2,-7,1757008290543253183
0,2.183449507,20250904135130550,None,0,0,-3,-10,-7,6,-4,-8,1757008290550574064
0,2.183521986,20250904135130550,None,7,1,-1,1,-2,0,-1,5,1757008290550675630
0,2.190947533,20250904135130558,None,-4,-4,1,-3,0,-2,-5,-3,1757008290558038949
0,2.191051245,20250904135130558,None,2,0,-1,2,3,1,-2,1,1757008290558140277
0,2.206035137,20250904135130573,None,-4,-2,-2,2,-2,0,1,-4,1757008290573110818
0,2.206114292,20250904135130573,None,13,-1,-3,4,3,-1,2,6,1757008290573222875
0,2.2135005,20250904135130580,None,3,-2,2,-8,-10,-2,-3,-1,1757008290580619573
0,2.21356988,20250904135130581,None,-5,2,-4,-1,10,5,4,-3,1757008290580731153
0,2.221020937,20250904135130588,None,0,-3,-2,3,-12,-1,7,4,1757008290588095426
0,2.221095085,20250904135130588,None,-5,-3,0,1,2,-3,-13,-3,1757008290588196754
0,2.236180067,20250904135130603,None,-3,2,-2,1,1,-3,-1,1,1757008290603057384
0,2.236337423,20250904135130603,None,2,1,-2,-4,4,-2,3,2,1757008290603162050
0,2.243566275,20250904135130611,None,3,-1,1,0,-4,0,0,-2,1757008290610676527
0,2.24364686,20250904135130611,None,1,-5,-1,-2,-5,2,0,-2,1757008290610781192
0,2.251304388,20250904135130618,None,-4,-3,-6,8,-3,34,1,-2,1757008290618005752
0,2.251367569,20250904135130618,None,-3,-1,2,-19,-4,4,1,1,1757008290618098735
0,2.265946388,20250904135130633,None,5,0,1,3,3,1,1,0,1757008290633022546
0,2.266069889,20250904135130633,None,1,0,-3,2,-1,-1,0,-1,1757008290633175134
0,2.273201227,20250904135130640,None,-4,1,-2,-2,-3,3,0,0,1757008290640488862
0,2.273279905,20250904135130640,None,3,-1,-1,0,-4,-4,1,9,1757008290640607833
0,2.280723333,20250904135130648,None,-10,0,1,7,6,-1,-2,-12,1757008290647969245
0,2.280832529,20250904135130648,None,2,2,1,1,4,3,2,1,1757008290648087739
0,2.2958443170000002,20250904135130663,None,-5,2,1,0,-4,16,0,-1,1757008290662967443
0,2.295996428,20250904135130663,None,-2,0,2,-2,-2,-21,-3,3,1757008290663118839
0,2.303390741,20250904135130670,None,3,-1,-2,-1,0,1,-3,-5,1757008290670673847
0,2.303502083,20250904135130670,None,-2,-3,0,1,2,2,1,4,1757008290670852899
0,2.310899019,20250904135130678,None,-12,-3,-2,-3,-5,0,-1,-1,1757008290678112745
0,2.311010361,20250904135130678,None,5,3,1,0,0,0,-3,0,1757008290678296327
0,2.326089144,20250904135130693,None,-1,-2,-4,-2,-1,0,-4,1,1757008290693274021
0,2.326253414,20250904135130693,None,-1,-1,-1,5,4,0,0,-1,1757008290693502187
0,2.333890915,20250904135130701,None,-2,-2,0,-4,3,2,3,-2,1757008290700924396
0,2.334067822,20250904135130701,None,-6,0,1,5,-2,-4,-4,-1,1757008290701122522
0,2.341166735,20250904135130708,None,0,3,-3,-7,-3,2,-3,-2,1757008290708404779
0,2.3412561419999998,20250904135130708,None,1,2,1,-4,-4,-4,3,-1,1757008290708591938
0,2.356077909,20250904135130723,None,-3,-2,-2,0,1,3,-1,0,1757008290723334074
0,2.356190681,20250904135130723,None,-1,0,1,0,1,1,2,0,1757008290723520755
0,2.363614321,20250904135130731,None,0,-2,0,-1,0,-5,1,4,1757008290730680942
0,2.363687992,20250904135130731,None,-2,-2,0,-5,-2,-2,-3,-1,1757008290730846643
0,2.371221304,20250904135130738,None,-6,-1,-4,3,-2,1,0,-8,1757008290738265514
0,2.371287107,20250904135130738,None,5,2,-3,-1,-5,-4,4,1,1757008290738442420
0,2.386253595,20250904135130753,None,6,1,1,6,9,-1,-25,-8,1757008290753298997
0,2.386333466,20250904135130753,None,2,-3,2,0,-2,-14,-1,-1,1757008290753470420
0,2.393734455,20250904135130761,None,0,4,1,-18,-2,0,2,3,1757008290760750532
0,2.3938274379999998,20250904135130761,None,-4,0,-4,7,3,3,4,3,1757008290760932922
0,2.401904583,20250904135130769,None,-10,-1,-4,-1,-2,-1,4,-2,1757008290768312692
0,2.402068853,20250904135130769,None,4,2,-4,2,5,0,-6,-1,1757008290768731117
0,2.416931868,20250904135130784,None,-15,-1,-2,-2,-7,-3,1,0,1757008290783531427
0,2.417137623,20250904135130784,None,4,-1,-3,4,0,-3,-3,-5,1757008290783741474
0,2.423858881,20250904135130791,None,-3,-1,-3,0,-1,-10,-4,0,1757008290790733575
0,2.424012423,20250904135130791,None,2,-3,1,1,4,5,-1,0,1757008290790903329
0,2.431511164,20250904135130799,None,0,3,-3,-5,-1,0,-3,-2,1757008290798305273
0,2.4317207339999998,20250904135130799,None,-3,-4,-4,-3,-2,1,1,-2,1757008290798480272
0,2.446998358,20250904135130814,None,1,-4,0,0,1,1,1,1,1757008290813583612
0,2.447208405,20250904135130814,None,2,-2,-2,-2,2,-1,-2,0,1757008290813802003
0,2.4542701239999998,20250904135130821,None,0,-1,-1,-1,2,-4,3,-1,1757008290820934295
0,2.454457521,20250904135130821,None,-1,-2,-5,-1,-4,-5,1,9,1757008290821110248
0,2.461410522,20250904135130828,None,-3,0,-1,2,6,-3,-5,-7,1757008290828294992
0,2.4615767,20250904135130829,None,2,-4,-1,1,2,8,-2,-2,1757008290828469753
0,2.476355314,20250904135130843,None,-1,0,-2,-8,-6,-5,-2,0,1757008290843141555
0,2.476591587,20250904135130844,None,-2,0,1,1,3,-4,-2,-1,1757008290843264579
0,2.484294415,20250904135130851,None,2,-1,1,6,5,2,1,-2,1757008290850990533
0,2.484474897,20250904135130851,None,-4,2,-2,-4,3,4,0,4,1757008290851188659
0,2.4918150900000002,20250904135130859,None,-7,-2,0,-3,-8,-3,-1,1,1757008290858499288
0,2.49198246,20250904135130859,None,4,1,-4,1,1,3,4,0,1757008290858694553
0,2.5071172710000003,20250904135130874,None,-1,-4,-2,-3,-1,3,-6,0,1757008290873639106
0,2.50733161,20250904135130874,None,3,-2,-3,1,0,-3,1,-1,1757008290873869657
0,2.514555454,20250904135130882,None,-3,-1,1,2,0,1,-1,1,1757008290881120204
0,2.514807701,20250904135130882,None,1,-1,-2,0,-2,1,0,-6,1757008290881370544
0,2.521961927,20250904135130889,None,16,-2,1,3,0,-2,-3,5,1757008290888633012
0,2.522161722,20250904135130889,None,-4,-4,-1,-20,-5,-1,-2,-1,1757008290888826131
0,2.536844492,20250904135130904,None,-3,-1,0,0,0,1,16,1,1757008290903489828
0,2.537059784,20250904135130904,None,1,0,-2,6,7,-22,-4,-2,1757008290903688192
0,2.544253588,20250904135130911,None,-3,-1,-4,-3,-4,-4,-5,-3,1757008290910909891
0,2.544438601,20250904135130911,None,-8,-2,-4,-2,2,8,10,0,1757008290911112308
0,2.551590681,20250904135130919,None,8,-1,2,-1,-4,-24,-6,3,1757008290918408632
0,2.551752806,20250904135130919,None,5,-2,-2,1,-1,-1,-2,3,1757008290918584346
0,2.566698313,20250904135130934,None,-5,-1,-4,-2,2,6,0,-11,1757008290933469295
0,2.566920042,20250904135130934,None,5,0,-5,1,0,7,-1,2,1757008290933648109
0,2.573646545,20250904135130941,None,2,-2,-1,3,-1,-4,2,10,1757008290940737247
0,2.573743105,20250904135130941,None,-1,-3,1,-1,2,-1,1,-6,1757008290940886259
0,2.580850124,20250904135130948,None,-2,-1,-3,-2,-4,-2,-1,-4,1757008290948045730
0,2.580940962,20250904135130948,None,-5,0,-2,-3,-5,-1,-5,0,1757008290948162794
0,2.604119301,20250904135130971,None,-1,-4,-1,4,6,1,2,1,1757008290971318006
0,2.604272842,20250904135130971,None,1,3,2,-4,0,5,1,-1,1757008290971474885
0,2.6047949790000002,20250904135130972,None,-3,-1,-2,2,-3,-4,-3,1,1757008290972039222
0,2.6049263480000002,20250904135130972,None,3,-2,-3,-2,1,-2,10,-1,1757008290972175121
0,2.618826389,20250904135130986,None,-5,0,1,-1,0,1,-4,-1,1757008290985837221
0,2.61928463,20250904135130986,None,-4,-1,-3,-5,1,-2,-2,-2,1757008290986065626
0,2.6260516640000002,20250904135130993,None,3,-1,-2,-5,-7,-6,-7,1,1757008290993188619
0,2.62620306,20250904135130993,None,-3,1,-1,1,-1,4,6,-1,1757008290993351459
0,2.633187532,20250904135131000,None,-3,3,-1,0,4,0,0,-1,1757008291000514030
0,2.63328743,20250904135131000,None,2,-2,-2,-3,0,-2,1,-3,1757008291000639915
0,2.6407907010000002,20250904135131008,None,2,-2,1,-1,-1,-7,-4,1,1757008291007994413
0,2.64087534,20250904135131008,None,5,3,2,0,-6,-8,-4,4,1757008291008128166
0,2.6563148500000002,20250904135131023,None,-1,2,0,18,4,-1,-1,-4,1757008291023180961
0,2.656504631,20250904135131023,None,2,-1,2,-16,-3,2,-1,0,1757008291023735761
0,2.671826124,20250904135131039,None,0,0,-3,0,1,1,-1,-2,1757008291038807630
0,2.671999216,20250904135131039,None,3,2,0,0,-3,-9,-2,2,1757008291038990736
0,2.672609806,20250904135131040,None,1,2,-4,2,-10,3,0,8,1757008291039633035
0,2.672821522,20250904135131040,None,7,1,-5,0,3,18,-2,-7,1757008291039811611
0,2.686199665,20250904135131053,None,-2,-3,-1,2,-1,-27,-6,-10,1757008291053143739
0,2.6863951679999998,20250904135131053,None,-6,-6,-4,-3,-2,55,4,3,1757008291053378343
0,2.693471193,20250904135131060,None,-4,-1,-1,-3,2,5,-5,3,1757008291060475587
0,2.693637371,20250904135131061,None,-2,-1,0,-2,-3,2,2,-2,1757008291060612678
0,2.700942516,20250904135131068,None,-4,-1,-3,-1,-1,1,1,0,1757008291067910671
0,2.701120615,20250904135131068,None,1,-1,-1,-3,3,-2,2,1,1757008291068021059
0,2.716015339,20250904135131083,None,-1,-4,-1,-2,-4,-2,0,-1,1757008291082965850
0,2.716194391,20250904135131083,None,-10,-1,-2,0,-4,-1,0,6,1757008291083076238
0,2.723407984,20250904135131090,None,-13,0,0,2,4,2,3,-2,1757008291090443849
0,2.723704338,20250904135131091,None,-2,-2,-3,6,3,5,-5,-6,1757008291090566635
0,2.730921745,20250904135131098,None,2,-3,-2,-4,2,0,-2,2,1757008291097906351
0,2.731104612,20250904135131098,None,-2,-3,-6,-11,-11,-7,-7,1,1757008291098009586
0,2.745997667,20250904135131113,None,1,2,-1,0,3,1,-1,-2,1757008291112954616
0,2.746187449,20250904135131113,None,-6,-3,1,5,-10,-4,-4,-4,1757008291113079071
0,2.753460884,20250904135131120,None,-3,-1,1,5,3,-3,-2,2,1757008291120468854
0,2.753638506,20250904135131121,None,-3,-7,-1,-4,4,4,5,1,1757008291120583534
0,2.76094389,20250904135131128,None,-2,-1,-3,3,-3,1,-7,0,1757008291127916574
0,2.76112175,20250904135131128,None,1,-1,1,-6,1,-5,-3,-5,1757008291128014802
0,2.776085138,20250904135131143,None,-1,-3,2,-7,-4,-4,0,-2,1757008291143079757
0,2.776278973,20250904135131143,None,1,2,1,1,2,-6,-5,7,1757008291143182516
0,2.78360486,20250904135131151,None,6,-2,0,0,-4,1,-3,-10,1757008291150649309
0,2.783828497,20250904135131151,None,1,6,2,2,3,2,1,-2,1757008291150753259
0,2.7986238,20250904135131166,None,-3,-1,-5,3,-3,0,8,0,1757008291165652513
0,2.798838139,20250904135131166,None,1,2,2,1,-2,25,2,2,1757008291165754795
0,2.806148291,20250904135131173,None,4,0,0,-1,2,-23,-2,3,1757008291173142671
0,2.80632782,20250904135131173,None,-2,-5,-3,-3,-1,5,0,-2,1757008291173251628
0,2.813575745,20250904135131181,None,1,-2,2,0,0,2,0,0,1757008291180623769
0,2.813741684,20250904135131181,None,-5,1,1,0,-3,-2,-2,-8,1757008291180720806
0,2.828702211,20250904135131196,None,-2,0,2,0,0,1,1,-2,1757008291195707559
0,2.8289675709999997,20250904135131196,None,2,1,1,2,2,4,-2,-3,1757008291195843219
0,2.836133003,20250904135131203,None,0,1,-2,2,-9,-2,7,1,1757008291203108787
0,2.836310387,20250904135131203,None,-2,-2,1,2,7,-4,-5,0,1757008291203212738
0,2.843735218,20250904135131211,None,-3,3,1,-5,-15,-7,-1,0,1757008291210744380
0,2.84392643,20250904135131211,None,1,0,0,-2,-1,1,12,-2,1757008291210922002
0,2.858619213,20250904135131226,None,2,0,2,6,0,-51,-7,4,1757008291225554227
0,2.858832121,20250904135131226,None,1,-2,0,-4,-2,2,0,-2,1757008291225707769
0,2.865953445,20250904135131233,None,7,6,2,6,6,11,4,5,1757008291233014583
0,2.866070032,20250904135131233,None,-5,-2,1,18,10,1,0,-4,1757008291233128309
0,2.873212814,20250904135131240,None,2,0,1,-17,-21,-7,0,16,1757008291240502834
0,2.873271704,20250904135131240,None,-5,0,0,1,1,0,2,-15,1757008291240613937
0,2.888602972,20250904135131256,None,-10,-1,-4,0,0,0,2,-7,1757008291255600690
0,2.888839006,20250904135131256,None,21,1,-2,9,1,0,-3,6,1757008291255715131
0,2.896108866,20250904135131263,None,-4,0,-1,-1,0,-1,-2,1,1757008291263100385
0,2.896303892,20250904135131263,None,-2,0,-1,-3,0,0,2,0,1757008291263253211
0,2.9035675530000002,20250904135131271,None,-1,0,-1,-3,-2,1,5,-3,1757008291270578861
0,2.903800011,20250904135131271,None,1,0,-2,-1,-4,2,2,-1,1757008291270691871
0,2.918610573,20250904135131286,None,-1,-1,0,-5,2,-3,-5,-3,1757008291285585403
0,2.918833256,20250904135131286,None,0,2,3,-2,-6,1,-3,1,1757008291285697698
0,2.926034451,20250904135131293,None,-4,-1,-3,4,5,1,3,-5,1757008291293038129
0,2.9262313840000003,20250904135131293,None,-1,-1,-4,-3,-4,12,2,-1,1757008291293140172
0,2.933535576,20250904135131301,None,1,2,0,2,-4,-16,-13,-2,1757008291300559520
0,2.933735132,20250904135131301,None,-7,-2,0,2,-5,-3,-2,-2,1757008291300670623
0,2.948830128,20250904135131316,None,-7,-2,-3,3,4,5,2,0,1757008291315823316
0,2.949000597,20250904135131316,None,7,2,0,-1,2,5,0,-1,1757008291316004753
0,2.956353188,20250904135131323,None,-2,-3,-1,-6,-7,-4,-3,-3,1757008291323338508
0,2.956531048,20250904135131324,None,-3,-3,1,3,2,4,1,1,1757008291323521137
0,2.963806391,20250904135131331,None,-6,-1,-3,0,1,-7,2,-3,1757008291330767154
0,2.96397543,20250904135131331,None,-1,-1,-1,1,0,-2,2,4,1757008291330950498
0,2.978837252,20250904135131346,None,-1,-2,0,-1,4,6,3,-9,1757008291345773458
0,2.979019165,20250904135131346,None,16,-2,-2,0,-2,-4,-11,0,1757008291345970869
0,2.986310005,20250904135131353,None,-9,-6,-2,-7,1,3,-10,0,1757008291353281497
0,2.986473084,20250904135131353,None,0,0,-2,-5,-1,-4,-1,1,1757008291353464603
0,2.993727207,20250904135131361,None,-8,-3,-3,0,1,0,1,0,1757008291360704421
0,2.9939789770000003,20250904135131361,None,-1,0,2,1,-1,-2,0,-2,1757008291360885858
0,3.008806229,20250904135131376,None,-1,-1,-3,0,6,5,3,2,1757008291375749588
0,3.008984089,20250904135131376,None,-3,-4,2,3,-4,-1,-3,1,1757008291375942468
0,3.016357183,20250904135131383,None,-3,-2,-2,-1,4,1,1,-5,1757008291383324384
0,3.016535282,20250904135131384,None,1,0,0,-6,-10,-2,-5,-2,1757008291383514165
0,3.023808718,20250904135131391,None,-6,-4,-5,1,3,4,2,-2,1757008291390763521
0,3.023978233,20250904135131391,None,5,2,0,0,1,-5,0,-1,1757008291390939950
0,3.039000273,20250904135131406,None,-1,-3,-2,0,-1,1,-1,4,1757008291405886411
0,3.03919673,20250904135131406,None,-1,-1,-1,-2,-4,-3,-2,-7,1757008291406073570
0,3.046292305,20250904135131413,None,2,-3,0,-1,0,-3,4,-1,1757008291413285970
0,3.046456099,20250904135131413,None,-2,-1,1,-1,4,4,5,7,1757008291413451671
0,3.053631544,20250904135131421,None,-2,-1,-4,-9,-7,22,-5,-12,1757008291420663595
0,3.05382371,20250904135131421,None,-1,2,-2,8,3,-23,2,4,1757008291420781850
0,3.068567753,20250904135131436,None,-3,-3,-1,-7,-4,5,0,-3,1757008291435671329
0,3.068744659,20250904135131436,None,2,-5,0,2,2,-2,-5,1,1757008291435744285
0,3.076171875,20250904135131443,None,-28,-3,1,2,-4,3,0,0,1757008291443171024
0,3.076357126,20250904135131443,None,7,-1,-4,1,4,4,0,2,1757008291443263769
0,3.083595037,20250904135131451,None,0,3,-2,-13,-12,-12,-4,-2,1757008291450643777
0,3.083823442,20250904135131451,None,2,-3,1,1,3,4,5,3,1757008291450744628
0,3.098939896,20250904135131466,None,1,-1,-2,1,-4,2,4,2,1757008291465890645
0,3.099104643,20250904135131466,None,-5,0,0,5,-2,-9,-9,-2,1757008291466076374
0,3.106443167,20250904135131473,None,-2,-1,-1,0,-2,-5,-1,-3,1757008291473417758
0,3.106620073,20250904135131474,None,-1,-1,-1,-2,-1,4,7,-3,1757008291473598241
0,3.113887548,20250904135131481,None,-2,-3,0,0,1,-6,-10,-6,1757008291480841875
0,3.114050388,20250904135131481,None,-2,1,-2,0,-5,-1,2,2,1757008291481025695
0,3.128931999,20250904135131496,None,-6,-2,-5,-4,2,-1,2,1,1757008291495879411
0,3.129109621,20250904135131496,None,6,0,-3,-1,4,6,-19,-3,1757008291496067047
0,3.136434555,20250904135131503,None,-2,1,-5,-3,-8,-5,0,-3,1757008291503431081
0,3.136599302,20250904135131504,None,1,-2,0,4,1,-8,-6,-9,1757008291503599405
0,3.143928528,20250904135131511,None,-3,0,1,-4,2,-2,1,-3,1757008291510879278
0,3.144087791,20250904135131511,None,3,2,1,6,7,0,2,7,1757008291511055707
0,3.159454823,20250904135131526,None,-3,1,0,-14,-12,3,-2,2,1757008291526370763
0,3.159676552,20250904135131527,None,4,-3,-3,2,-5,-4,-3,3,1757008291526561975
0,3.166393518,20250904135131533,None,-6,1,-2,-10,-1,-8,-6,-7,1757008291533361673
0,3.16655755,20250904135131534,None,-1,0,-3,10,6,8,3,1,1757008291533535242
0,3.17356205,20250904135131541,None,24,1,1,-1,1,-20,-1,3,1757008291540775775
0,3.173653364,20250904135131541,None,-3,-5,-2,-3,-3,2,-2,-5,1757008291540961980
0,3.18885684,20250904135131556,None,-5,-3,1,-1,3,5,3,3,1757008291555804729
0,3.189020395,20250904135131556,None,1,-1,-2,8,-1,-4,-8,-5,1757008291555980443
0,3.196398258,20250904135131563,None,-1,-1,2,-9,3,8,3,-5,1757008291563397169
0,3.196564674,20250904135131564,None,1,2,-4,-3,-2,-2,4,3,1757008291563570737
0,3.203915358,20250904135131571,None,0,0,-2,1,-9,-8,2,10,1757008291570869922
0,3.204078436,20250904135131571,None,-2,-4,0,2,1,-3,-2,-13,1757008291571045637
0,3.218820334,20250904135131586,None,-2,0,1,-3,3,2,-1,-4,1757008291585878849
0,3.219049692,20250904135131586,None,-6,-1,-4,2,1,0,-3,0,1757008291586070775
0,3.225928307,20250904135131593,None,3,-1,-1,-6,0,1,-1,4,1757008291593041181
0,3.226031303,20250904135131593,None,-2,0,0,0,-3,0,0,0,1757008291593144655
0,3.23337245,20250904135131600,None,1,1,0,-4,-1,1,-6,-1,1757008291600462913
0,3.233477354,20250904135131600,None,0,-1,-1,-2,-1,1,5,-1,1757008291600548028
0,3.249000549,20250904135131616,None,-1,-1,0,0,-1,-2,-8,4,1757008291615685462
0,3.249223709,20250904135131616,None,-6,1,1,0,1,-2,-17,-6,1757008291615789175
0,3.25648427,20250904135131623,None,3,0,-2,-2,4,3,-3,-1,1757008291623265027
0,3.2567031379999998,20250904135131624,None,-13,-4,-4,0,-10,-13,-5,-3,1757008291623397827
0,3.263801336,20250904135131631,None,7,4,1,-9,-4,4,-3,1,1757008291630652189
0,3.26399684,20250904135131631,None,-16,-3,-2,4,4,-4,3,-1,1757008291630751132
0,3.2787590030000002,20250904135131646,None,-1,-7,-1,-2,-3,-2,0,0,1757008291645649671
0,3.27915597,20250904135131646,None,-5,-2,0,0,3,21,5,5,1757008291645701408
0,3.2944712640000002,20250904135131661,None,9,-1,-1,0,1,-29,-6,-9,1757008291661274194
0,3.294657946,20250904135131662,None,-3,2,0,10,-1,9,1,-1,1757008291661372661
0,3.295146704,20250904135131662,None,-5,-4,-3,-15,-1,5,-1,0,1757008291662002801
0,3.295355558,20250904135131662,None,0,-2,-1,-3,-1,-3,-1,4,1757008291662098169
0,3.308902741,20250904135131676,None,-5,0,1,8,7,3,-2,-2,1757008291675667047
0,3.309099674,20250904135131676,None,0,1,-2,1,-13,5,4,1,1757008291675765514
0,3.3161969190000002,20250904135131683,None,3,0,-3,-6,-2,-4,0,0,1757008291683120489
0,3.316386461,20250904135131683,None,-3,0,1,1,2,-2,5,4,1757008291683209419
0,3.323824883,20250904135131691,None,-1,0,0,0,-1,-6,-9,-7,1757008291690641880
0,3.324018717,20250904135131691,None,-3,0,1,-2,-1,2,-5,-4,1757008291690737247
0,3.338838339,20250904135131706,None,-2,-1,1,0,1,2,3,5,1757008291705623626
0,3.339043856,20250904135131706,None,-1,-5,-1,-2,-2,-2,-3,0,1757008291705721855
0,3.34623003,20250904135131713,None,2,-2,1,-2,-1,1,-1,3,1757008291713122367
0,3.34643054,20250904135131713,None,2,0,1,4,-9,0,-2,0,1757008291713217020
0,3.353873014,20250904135131721,None,-5,-1,4,-4,-1,0,-4,-3,1757008291720758199
0,3.354642868,20250904135131722,None,9,0,-4,-4,0,-1,17,9,1757008291721162080
0,3.36861825,20250904135131736,None,-8,-3,-2,9,3,6,-1,-5,1757008291735697984
0,3.368790627,20250904135131736,None,0,-1,-4,-13,-4,-9,-9,-8,1757008291735881567
0,3.376628876,20250904135131744,None,3,-1,-1,-4,2,0,6,2,1757008291743336200
0,3.376863003,20250904135131744,None,-5,-3,-5,5,6,23,-4,2,1757008291743540525
0,3.3840227130000002,20250904135131751,None,1,1,1,-1,-4,-4,1,1,1757008291750888109
0,3.384233475,20250904135131751,None,-4,-2,-4,-2,-1,3,4,-5,1757008291751138925
0,3.399169683,20250904135131766,None,4,-4,-2,7,2,4,1,3,1757008291765879392
0,3.399441481,20250904135131766,None,-3,-1,-1,-12,-1,1,-8,1,1757008291766076326
0,3.406267166,20250904135131773,None,-1,-1,0,-4,-4,-4,-5,-2,1757008291773109436
0,3.4064219,20250904135131773,None,0,-1,0,4,3,-2,-1,1,1757008291773286581
0,3.413583517,20250904135131781,None,-3,4,1,3,-2,-4,-2,-1,1757008291780598640
0,3.413669825,20250904135131781,None,8,2,-3,4,7,21,2,0,1757008291780777931
0,3.428787947,20250904135131796,None,1,2,-2,0,-7,-39,-4,-2,1757008291795707464
0,3.428888798,20250904135131796,None,1,0,1,-1,-5,4,-3,-2,1757008291795897960
0,3.436248779,20250904135131803,None,-2,-1,1,-1,1,6,1,-1,1757008291803214311
0,3.436331034,20250904135131803,None,3,-5,-1,0,-2,0,3,11,1757008291803429126
0,3.44369936,20250904135131811,None,3,1,1,-1,-2,3,-1,-1,1757008291810740232
0,3.44377923,20250904135131811,None,11,5,1,2,-3,0,-3,-7,1757008291810931682
0,3.458622217,20250904135131826,None,21,0,0,-3,-5,-9,-5,-5,1757008291825718879
0,3.458817244,20250904135131826,None,2,0,-1,-2,4,-1,4,2,1757008291826075077
0,3.466331959,20250904135131833,None,-4,-2,0,-2,0,5,2,4,1757008291833273649
0,3.466511965,20250904135131833,None,-2,0,-1,5,0,-4,3,2,1757008291833462953
0,3.47386241,20250904135131841,None,-5,-3,-2,-11,-6,-4,-4,0,1757008291840751886
0,3.474030256,20250904135131841,None,-2,-1,0,3,2,0,0,-1,1757008291840945959
0,3.4888586999999998,20250904135131856,None,0,0,-1,0,-6,-6,-3,-2,1757008291855787277
0,3.489362001,20250904135131856,None,-4,-3,-3,8,5,4,-6,2,1757008291855983734
0,3.496179104,20250904135131863,None,2,-2,-3,-18,-5,0,-3,-1,1757008291863295793
0,3.496474981,20250904135131863,None,3,-4,-5,-2,5,0,0,-4,1757008291863637924
0,3.503805876,20250904135131871,None,-1,-1,-1,3,-1,-1,3,-1,1757008291870756149
0,3.504003525,20250904135131871,None,5,-3,-2,-1,-3,21,3,-3,1757008291870940446
0,3.519101858,20250904135131886,None,2,0,-3,-3,-4,-5,-3,-4,1757008291885796546
0,3.519288301,20250904135131886,None,2,0,-3,-8,-7,-2,4,-4,1757008291885990142
0,3.526442528,20250904135131893,None,-1,1,-2,1,2,6,0,4,1757008291893253326
0,3.526607752,20250904135131894,None,0,1,1,2,5,0,-1,3,1757008291893449783
0,3.5343861580000002,20250904135131901,None,-8,-7,-1,-2,-8,-4,-6,-2,1757008291900989770
0,3.534574509,20250904135131902,None,2,-4,2,-5,-2,-2,-4,-2,1757008291901194334
0,3.5491070750000002,20250904135131916,None,-1,-3,-3,6,2,3,4,-1,1757008291915818452
0,3.549301863,20250904135131916,None,-2,1,0,5,1,-3,-6,-8,1757008291916015148
0,3.556509256,20250904135131923,None,-13,-3,-2,1,2,13,0,0,1757008291923300266
0,3.556676626,20250904135131924,None,2,0,-1,-1,-1,-27,3,6,1757008291923474788
0,3.564078569,20250904135131931,None,-3,0,-1,-1,1,8,-5,-10,1757008291930819749
0,3.5642557139999997,20250904135131931,None,-2,-3,-1,-2,-7,-7,-5,-4,1757008291931000947
0,3.579403877,20250904135131946,None,0,1,-1,-2,1,3,0,0,1757008291946024656
0,3.57958746,20250904135131947,None,-2,-2,-4,1,1,3,1,1,1757008291946260213
0,3.586504698,20250904135131953,None,-1,-1,0,-4,0,1,-1,1,1757008291953307628
0,3.586687088,20250904135131954,None,0,-1,0,-2,4,1,-1,-3,1757008291953494310
0,3.594204903,20250904135131961,None,-1,1,1,0,-2,7,-3,-1,1757008291960805892
0,3.594408274,20250904135131961,None,14,3,-1,1,2,-3,-6,1,1757008291961032629
0,3.609500408,20250904135131977,None,11,0,-3,-6,-12,3,2,6,1757008291975942611
0,3.609808922,20250904135131977,None,3,-3,1,-5,3,-1,-2,-5,1757008291976193904
0,3.6165544990000003,20250904135131984,None,2,0,1,-12,-3,1,1,-3,1757008291983315706
0,3.616733313,20250904135131984,None,3,-2,-2,1,-2,3,6,-1,1757008291983496427
0,3.62408495,20250904135131991,None,0,-3,-4,1,4,1,-1,-3,1757008291990790843
0,3.6242733,20250904135131991,None,-3,-1,-1,-1,-2,-5,-31,-1,1757008291990982294
0,3.639542103,20250904135132007,None,4,-1,1,-1,-6,-7,-2,-3,1757008292005965471
0,3.639844894,20250904135132007,None,-1,0,1,-1,2,-4,5,9,1757008292006203413
0,3.64661479,20250904135132014,None,-3,-1,1,4,0,0,-4,-10,1757008292013324975
0,3.647048712,20250904135132014,None,-1,0,-3,-6,-2,2,-1,3,1757008292013514280
0,3.653973579,20250904135132021,None,-3,-1,0,2,2,2,-1,-10,1757008292020747423
0,3.654146433,20250904135132021,None,-4,-3,-7,-3,-4,49,5,-2,1757008292020939111
0,3.66920352,20250904135132036,None,7,2,-2,-8,0,6,4,6,1757008292035876512
0,3.669427395,20250904135132036,None,-3,2,0,-2,-4,-8,-1,0,1757008292036063671
0,3.676574945,20250904135132044,None,1,-1,1,1,-2,-7,-6,-1,1757008292043327093
0,3.6767473219999998,20250904135132044,None,1,0,-3,0,0,3,0,0,1757008292043519973
0,3.684363604,20250904135132051,None,0,-7,0,-1,1,9,1,-3,1757008292050989151
0,3.684553385,20250904135132052,None,-4,-3,-2,-3,-4,-19,6,-1,1757008292051204204
0,3.698747396,20250904135132066,None,2,1,0,-3,-1,2,-7,1,1757008292065661907
0,3.698942423,20250904135132066,None,0,-1,1,3,-3,1,-3,-3,1757008292065838813
0,3.706478357,20250904135132073,None,1,-1,-2,0,1,2,2,0,1757008292073163747
0,3.706711054,20250904135132074,None,4,-1,0,-1,1,0,1,-2,1757008292073391675
0,3.7136986260000002,20250904135132081,None,1,1,-1,3,0,1,1,-3,1757008292080608844
0,3.713884354,20250904135132081,None,1,1,-2,1,2,0,-1,-3,1757008292080773830
0,3.7290222650000002,20250904135132096,None,-1,-2,-4,-19,-7,-1,-2,-2,1757008292095687627
0,3.729241848,20250904135132096,None,-2,1,-2,5,5,0,-4,0,1757008292095891714
0,3.736568213,20250904135132104,None,2,4,-3,0,-3,1,2,5,1757008292103398561
0,3.736758947,20250904135132104,None,-1,-3,-2,2,-2,4,2,-5,1757008292103595733
0,3.751664162,20250904135132119,None,2,-1,-2,2,7,0,-3,-3,1757008292118362665
0,3.751878977,20250904135132119,None,1,2,1,2,0,-3,4,8,1757008292118575096
0,3.758449793,20250904135132125,None,0,-1,-2,-2,0,2,-3,5,1757008292125565290
0,3.758544922,20250904135132126,None,-1,-1,1,0,4,0,-27,-11,1757008292125686168
0,3.76613307,20250904135132133,None,-1,-3,-1,-1,1,1,-1,-13,1757008292133116006
0,3.766274452,20250904135132133,None,12,0,-4,-3,3,-1,-8,6,1757008292133251428
0,3.781433582,20250904135132148,None,6,-2,2,-3,1,-6,3,4,1757008292148374795
0,3.7816038130000003,20250904135132149,None,3,-1,-5,-3,-2,-3,5,3,1757008292148574829
0,3.789368153,20250904135132156,None,-4,-2,4,0,-1,2,0,0,1757008292155959606
0,3.789567232,20250904135132157,None,1,-4,0,3,-3,-2,0,-1,1757008292156172275
0,3.796581507,20250904135132164,None,-2,0,0,0,-2,10,4,-2,1757008292163320302
0,3.796760321,20250904135132164,None,-4,-1,-1,4,3,11,-6,-3,1757008292163506269
0,3.811926365,20250904135132179,None,-6,-6,-1,0,-4,-34,-7,-3,1757008292178471088
0,3.812127352,20250904135132179,None,6,-1,1,-2,-1,3,0,-1,1757008292178692579
0,3.819185495,20250904135132186,None,-4,2,3,0,2,2,-1,-4,1757008292185845851
0,3.819371939,20250904135132186,None,-4,-1,-4,2,0,0,-2,0,1757008292186047077
0,3.827135086,20250904135132194,None,0,0,-2,-4,-1,0,0,-1,1757008292193775653
0,3.8273656369999998,20250904135132194,None,-3,-1,-1,0,-5,0,1,-1,1757008292193989992
0,3.841919899,20250904135132209,None,-3,1,0,2,2,2,6,-3,1757008292208515644
0,3.842493057,20250904135132210,None,1,-1,-1,-4,2,5,-3,-5,1757008292208704233
0,3.848865032,20250904135132216,None,2,-1,2,15,-1,-3,-2,-2,1757008292215704202
0,3.84903717,20250904135132216,None,1,0,2,-13,-2,-3,0,-4,1757008292215882062
0,3.85640645,20250904135132223,None,-2,-1,-2,-16,-10,1,4,-1,1757008292223212242
0,3.856591225,20250904135132224,None,-3,-2,1,6,7,-3,-3,-11,1757008292223462343
0,3.871294022,20250904135132238,None,2,0,1,-1,-10,-1,4,0,1757008292238077640
0,3.8714916710000002,20250904135132238,None,-1,2,0,-2,-4,4,0,3,1757008292238192319
0,3.878629684,20250904135132246,None,-5,-4,2,-2,0,1,-3,-1,1757008292245529651
0,3.87882638,20250904135132246,None,3,-1,-1,2,3,2,-1,2,1757008292245620727
0,3.886199713,20250904135132253,None,1,1,-1,-2,-1,3,-1,0,1757008292253049373
0,3.886380434,20250904135132253,None,4,4,0,2,-4,-6,-3,4,1757008292253144741
0,3.901248217,20250904135132268,None,0,-1,-3,0,0,0,0,-3,1757008292268064260
0,3.901433468,20250904135132268,None,0,1,-2,-4,-2,-3,1,3,1757008292268160343
0,3.909229755,20250904135132276,None,-2,0,0,1,0,-3,-4,-5,1757008292275790691
0,3.909491777,20250904135132276,None,-1,0,-3,-1,0,3,12,-2,1757008292275972604
0,3.9165103439999998,20250904135132284,None,-8,-1,1,-3,-5,-9,-14,-3,1757008292283302068
0,3.916686058,20250904135132284,None,1,1,1,-4,-3,-5,-2,-3,1757008292283469915
0,3.931995153,20250904135132299,None,-1,-3,-2,0,-6,-4,6,0,1757008292298563480
0,3.932217121,20250904135132299,None,-1,1,0,-1,-1,-4,-3,-4,1757008292298840522
0,3.9392170909999997,20250904135132306,None,-2,1,-2,-1,0,1,8,3,1757008292305987596
0,3.93939352,20250904135132306,None,1,4,5,7,3,-55,-4,3,1757008292306186676
0,3.94659996,20250904135132314,None,1,-1,-6,-3,-3,-4,-5,-8,1757008292313387870
0,3.946800709,20250904135132314,None,-4,-3,-4,1,-1,20,2,1,1757008292313565492
0,3.961745024,20250904135132329,None,-14,-2,2,-6,-2,-21,1,-2,1757008292328356266
0,3.962004185,20250904135132329,None,5,-1,-1,-1,2,6,-6,-11,1757008292328567028
0,3.969248056,20250904135132336,None,1,-3,1,8,2,1,1,4,1757008292336025953
0,3.969429493,20250904135132336,None,3,-1,-2,-2,-5,-6,-3,3,1757008292336215019
0,3.976313114,20250904135132343,None,-2,0,0,11,4,5,4,2,1757008292343186855
0,3.976468802,20250904135132343,None,-2,-2,-4,-16,-5,-2,-3,-1,1757008292343402862
0,3.991179466,20250904135132358,None,-2,0,0,1,0,-1,1,-1,1757008292358154058
0,3.991336823,20250904135132358,None,-1,-1,-4,2,-2,-2,-2,0,1757008292358328580
0,3.998445749,20250904135132365,None,4,-1,-2,4,7,11,2,0,1757008292365567684
0,3.998566151,20250904135132366,None,-1,1,2,1,-3,-14,-9,-5,1757008292365687370
0,4.006053209,20250904135132373,None,-1,0,-1,3,1,1,1,3,1757008292373096227
0,4.006167412,20250904135132373,None,-1,-2,0,-5,3,5,1,0,1757008292373220205
0,4.021052599,20250904135132388,None,-1,0,-1,-1,-9,-7,-6,-3,1757008292388094663
0,4.021176338,20250904135132388,None,-3,0,-2,-6,-2,0,4,0,1757008292388222932
0,4.029068232,20250904135132396,None,1,-1,1,-1,5,1,3,-1,1757008292395923376
0,4.029234886,20250904135132396,None,0,-2,-1,7,-10,-4,0,-3,1757008292396111249
0,4.03600049,20250904135132403,None,-2,-1,-4,-2,1,0,-1,-5,1757008292403081655
0,4.036095858,20250904135132403,None,-8,-2,-3,-2,-6,-2,3,13,1757008292403204441
0,4.051120997,20250904135132418,None,2,-2,0,-3,1,-1,-1,-10,1757008292418192386
0,4.05124402,20250904135132418,None,-2,-1,0,3,0,0,10,-7,1757008292418380022
0,4.067659855,20250904135132435,None,-4,0,0,2,0,-4,-7,5,1757008292434080362
0,4.067850113,20250904135132435,None,-5,-1,1,-1,4,0,1,-1,1757008292434317350
0,4.067974806,20250904135132435,None,2,1,-1,-2,0,-1,4,2,1757008292434893369
0,4.06854248,20250904135132436,None,-7,-4,-4,-3,-8,-3,-8,-1,1757008292435492753
0,4.081521273,20250904135132449,None,7,-3,0,-2,-2,4,3,2,1757008292448309183
0,4.08170414,20250904135132449,None,5,-2,0,-3,0,-2,-2,3,1757008292448504209
0,4.088610888,20250904135132456,None,-3,1,-4,0,-3,16,-2,-1,1757008292455656051
0,4.088722229,20250904135132456,None,-2,-2,-2,2,0,-23,2,-4,1757008292455797672
0,4.095990181,20250904135132463,None,-1,-4,-1,-1,-6,6,-4,1,1757008292463038921
0,4.096115589,20250904135132463,None,1,-6,-1,0,-2,0,-7,-4,1757008292463163137
0,4.11109376,20250904135132478,None,1,1,-2,10,3,3,1,3,1757008292478117704
0,4.111236572,20250904135132478,None,-2,0,-1,-14,-6,-3,1,1,1757008292478266954
0,4.118512154,20250904135132485,None,2,2,1,-6,-6,-7,-8,0,1757008292485588550
0,4.11861372,20250904135132486,None,5,-2,-1,4,2,0,3,3,1757008292485711097
0,4.126197815,20250904135132493,None,-1,0,0,3,3,1,1,7,1757008292493031740
0,4.126487732,20250904135132493,None,-3,1,-2,-2,-6,-6,-6,-12,1757008292493133783
0,4.141551018,20250904135132509,None,-10,-3,-1,-1,0,0,-3,-6,1757008292508327722
0,4.141729116,20250904135132509,None,4,1,-2,3,1,3,1,0,1757008292508510351
0,4.148965359,20250904135132516,None,-2,0,1,1,0,3,0,-2,1757008292515798091
0,4.149154663,20250904135132516,None,1,1,-2,-1,-1,-4,-4,0,1757008292516004085
0,4.156523228,20250904135132524,None,-2,-1,1,-1,4,-1,1,2,1757008292523298740
0,4.156708002,20250904135132524,None,3,-2,-1,0,-7,-4,1,-4,1757008292523486137
0,4.171256781,20250904135132538,None,-3,-3,-2,-2,0,-2,1,1,1757008292538170814
0,4.171424627,20250904135132538,None,-4,-1,-4,2,0,1,-5,-3,1757008292538361310
0,4.178481579,20250904135132545,None,-1,-4,-5,-3,-3,-4,5,-2,1757008292545589923
0,4.178579807,20250904135132546,None,0,0,-4,0,-10,-3,1,-4,1757008292545671701
0,4.186295986,20250904135132553,None,3,0,0,-2,-4,1,-3,0,1757008292553072452
0,4.186478138,20250904135132553,None,1,-1,2,-4,-3,2,-5,-2,1757008292553193807
0,4.200943232,20250904135132568,None,3,0,-2,1,2,0,-3,-1,1757008292567959070
0,4.201067209,20250904135132568,None,0,1,0,-3,-2,-1,0,2,1757008292568305730
0,4.208638907,20250904135132576,None,0,-1,0,1,1,-4,-1,-3,1757008292575766801
0,4.208725929,20250904135132576,None,-1,0,-2,-1,2,3,1,-1,1757008292575957298
0,4.216370106,20250904135132583,None,-2,-1,0,1,-2,-5,-7,9,1757008292583285570
0,4.216556311,20250904135132584,None,2,0,-1,1,1,1,5,-7,1757008292583461284
0,4.231343031,20250904135132598,None,-8,-3,1,0,1,4,-7,-14,1757008292598266124
0,4.231492758,20250904135132598,None,2,2,3,8,-1,-11,-7,-2,1757008292598451137
0,4.238940001,20250904135132606,None,-2,1,1,-8,-1,21,-6,-1,1757008292605781793
0,4.23909831,20250904135132606,None,6,-3,-1,-8,-5,-32,1,10,1757008292605972051
0,4.246405125,20250904135132613,None,0,-4,-5,-5,1,10,-2,-8,1757008292613333940
0,4.246584415,20250904135132614,None,-3,1,-1,2,-3,1,-2,-3,1757008292613505840
0,4.261431932,20250904135132628,None,-4,-2,1,-1,1,26,3,3,1757008292628312587
0,4.261654854,20250904135132629,None,9,3,1,0,-1,1,7,-6,1757008292628500223
0,4.268869877,20250904135132636,None,0,-3,-3,-1,2,-4,-2,6,1757008292635754346
0,4.269038916,20250904135132636,None,-3,1,-3,-2,-10,-6,-5,-1,1757008292635931491
0,4.276717424,20250904135132644,None,-1,-2,0,-2,0,1,-3,0,1757008292643613576
0,4.27692008,20250904135132644,None,0,-1,2,-2,0,1,1,1,1757008292643795490
0,4.291797161,20250904135132659,None,3,1,-1,0,-5,-1,-2,1,1757008292658416748
0,4.292010069,20250904135132659,None,0,-3,1,0,-3,-2,1,-2,1757008292658633947
0,4.298959494,20250904135132666,None,-1,1,-1,-3,1,-3,-1,-1,1757008292665808200
0,4.299127102,20250904135132666,None,1,-3,-1,0,-1,3,3,-2,1757008292666005611
0,4.306559801,20250904135132674,None,0,-1,-1,-5,-4,-8,-3,0,1757008292673377275
0,4.306821585,20250904135132674,None,2,1,1,-2,-3,-4,-5,6,1757008292673573493
0,4.321516991,20250904135132689,None,-6,-4,-1,-2,-1,1,-5,-13,1757008292688359498
0,4.32169342,20250904135132689,None,-1,1,-2,4,1,0,1,2,1757008292688546895
0,4.329037428,20250904135132696,None,0,-1,-2,0,-1,4,0,1,1757008292695763826
0,4.329223394,20250904135132696,None,-4,-2,0,-1,0,-2,-2,-1,1757008292695962667
0,4.344606638,20250904135132712,None,2,3,-1,-2,6,-6,-1,-1,1757008292711069345
0,4.344965458,20250904135132712,None,1,0,0,-1,-10,-3,1,-3,1757008292711321353
0,4.351671696,20250904135132719,None,3,-4,0,-1,-1,-2,-2,-1,1757008292718405961
0,4.351872206,20250904135132719,None,-1,-2,4,2,2,1,-2,0,1757008292718613386
0,4.35908699,20250904135132726,None,2,-6,-1,-3,-5,-2,-2,-2,1757008292725938081
0,4.359281063,20250904135132726,None,1,1,0,-3,0,-1,-4,0,1757008292726135969
0,4.366831064,20250904135132734,None,-3,-1,-3,0,1,1,4,2,1757008292733510971
0,4.36702919,20250904135132734,None,1,-1,-1,2,5,2,2,-2,1757008292733719110
0,4.381501198,20250904135132748,None,-16,-1,-5,8,-1,1,-1,-4,1757008292748356819
0,4.381687641,20250904135132749,None,6,0,0,-18,-3,-4,-4,2,1757008292748560428
0,4.388744593,20250904135132756,None,1,0,3,-1,0,15,1,3,1757008292755721807
0,4.388962984,20250904135132756,None,-5,-2,0,4,-4,-15,-1,-2,1757008292755910873
0,4.396067143,20250904135132763,None,-1,-2,-2,-2,-5,-2,-4,2,1757008292763273000
0,4.396144152,20250904135132763,None,-3,-3,-5,-4,1,63,0,-9,1757008292763449430
0,4.411225319,20250904135132778,None,-1,-2,-1,2,0,0,0,-1,1757008292778340339
0,4.41129756,20250904135132778,None,0,-3,-2,-4,1,4,1,-1,1757008292778542280
0,4.418686152,20250904135132786,None,-2,0,0,-5,-3,-4,-3,0,1757008292785789966
0,4.418789387,20250904135132786,None,-1,-4,0,4,1,0,2,-1,1757008292785991191
0,4.426350832,20250904135132793,None,-3,-3,-3,-1,3,-3,-4,-5,1757008292793506145
0,4.426423311,20250904135132793,None,-2,3,-3,-3,-1,0,-6,-1,1757008292793680667
0,4.442051172,20250904135132809,None,-2,1,-1,-4,1,1,-1,-2,1757008292808736562
0,4.442256928,20250904135132809,None,-5,-2,-2,0,-5,2,5,1,1757008292808959722
0,4.449346781,20250904135132816,None,2,0,-2,-4,-2,0,-2,-1,1757008292816087007
0,4.449536085,20250904135132817,None,-2,-2,-2,1,0,-4,-10,-2,1757008292816336870
0,4.456062317,20250904135132823,None,1,-2,-2,-1,-1,3,6,-2,1757008292823089838
0,4.456166983,20250904135132823,None,-3,-1,-1,0,1,-4,-1,-2,1757008292823220968
0,4.471156597,20250904135132838,None,-2,-3,0,0,0,-1,-1,7,1757008292838155746
0,4.471309662,20250904135132838,None,1,0,-1,-2,-1,-1,1,-6,1757008292838293075
0,4.478276014,20250904135132845,None,-1,-2,-4,-3,-4,-1,-2,-9,1757008292845569133
0,4.478349447,20250904135132845,None,0,1,0,2,-1,-5,0,2,1757008292845683097
0,4.485871792,20250904135132853,None,2,1,-2,0,-8,-1,1,1,1757008292853142261
0,4.48596406,20250904135132853,None,1,0,-2,0,3,3,0,0,1757008292853268146
0,4.5011367799999995,20250904135132868,None,-3,0,-3,-2,-1,0,3,3,1757008292868088245
0,4.5013487340000005,20250904135132868,None,-5,-2,2,-2,1,-2,-4,-2,1757008292868215799
0,4.508565664,20250904135132876,None,0,0,-2,3,-2,-4,9,-3,1757008292875615119
0,4.508729219,20250904135132876,None,0,0,-3,0,7,2,-4,0,1757008292875713109
0,4.516222477,20250904135132883,None,2,0,-2,-1,-4,11,-2,1,1757008292883029222
0,4.516522408,20250904135132884,None,17,0,-3,-1,2,-8,-2,8,1757008292883131980
0,4.531067133,20250904135132898,None,-2,-3,-1,9,-2,0,0,-7,1757008292898085355
0,4.531244278,20250904135132898,None,-5,-2,-4,-15,2,0,0,0,1757008292898191452
0,4.538528919,20250904135132906,None,1,1,0,-1,-3,2,3,3,1757008292905570268
0,4.538706541,20250904135132906,None,1,-3,-1,2,-4,2,5,15,1757008292905632019
0,4.546137571,20250904135132913,None,-1,0,-2,0,-1,-4,-8,-11,1757008292913118600
0,4.546329737,20250904135132913,None,1,-1,2,-2,-3,-4,-7,-5,1757008292913283824
0,4.56112361,20250904135132928,None,1,3,-3,2,2,-3,3,5,1757008292928104639
0,4.56130147,20250904135132928,None,-5,0,-2,-2,1,12,1,-3,1757008292928253650
0,4.568499327,20250904135132935,None,-3,0,-3,-3,-4,-14,-1,-1,1757008292935539245
0,4.568665266,20250904135132936,None,-2,-2,0,3,5,3,-3,1,1757008292935640096
0,4.576218367,20250904135132943,None,-1,2,2,1,-4,-32,-5,1,1757008292943098545
0,4.57647562,20250904135132943,None,2,0,0,-1,1,1,3,1,1757008292943201065
0,4.591295242,20250904135132958,None,-2,1,1,-3,0,6,-1,-4,1757008292958105087
0,4.591510296,20250904135132958,None,-4,-1,-2,-5,2,-4,-2,0,1757008292958222866
0,4.598658323,20250904135132966,None,2,0,1,1,-4,-2,1,0,1757008292965530395
0,4.598873854,20250904135132966,None,0,-1,0,0,0,2,3,2,1757008292965630292
0,4.606273174,20250904135132973,None,-4,-2,-4,1,1,5,-3,-1,1757008292973063707
0,4.606491566,20250904135132973,None,0,-4,0,-4,-4,-3,1,7,1757008292973158597
0,4.62108469,20250904135132988,None,-6,-2,-1,-2,1,-4,-9,-13,1757008292988079309
0,4.621269226,20250904135132988,None,-1,0,2,1,-1,-4,1,-1,1757008292988185405
0,4.6285035610000005,20250904135132995,None,-6,0,2,2,-3,-1,-19,4,1757008292995532989
0,4.6286726,20250904135132996,None,1,3,1,0,1,2,-1,-7,1757008292995643854
0,4.636289358,20250904135133003,None,-3,-2,-4,2,-3,1,6,0,1757008293003015518
0,4.63650918,20250904135133004,None,0,2,-1,-4,2,-6,1,1,1757008293003108978
0,4.651635408,20250904135133019,None,-1,-1,-1,0,-1,-3,6,-3,1757008293018358707
0,4.651881456,20250904135133019,None,3,-3,1,-4,1,5,0,4,1757008293018548011
0,4.6590240000000005,20250904135133026,None,10,0,-1,-5,-3,-22,-4,1,1757008293025708913
0,4.659256935,20250904135133026,None,-4,0,-2,0,3,4,-3,0,1757008293025882959
0,4.674086571,20250904135133041,None,-2,-4,5,0,2,2,-1,-1,1757008293040792465
0,4.674307823,20250904135133041,None,1,-2,-5,0,-1,2,1,1,1757008293040973663
0,4.681492806,20250904135133048,None,0,-2,0,12,4,0,-3,-2,1757008293048297166
0,4.681689262,20250904135133049,None,-2,0,1,-13,-2,1,2,8,1757008293048472166
0,4.689181328,20250904135133056,None,-4,-5,-1,-9,-5,7,3,-6,1757008293055785894
0,4.68943882,20250904135133056,None,-2,-3,-1,3,0,-10,-8,-5,1757008293055967569
0,4.704234123,20250904135133071,None,1,-4,0,3,1,-5,3,-2,1757008293070770740
0,4.704486609,20250904135133071,None,-3,-4,-2,4,1,2,1,8,1757008293070963859
0,4.711514235,20250904135133079,None,0,-2,-1,3,4,1,-1,1,1757008293078321218
0,4.711713791,20250904135133079,None,-2,-1,-2,-1,-2,1,2,-1,1757008293078490734
0,4.719160795,20250904135133086,None,-2,-3,3,1,-6,-3,1,6,1757008293085783243
0,4.71942687,20250904135133086,None,3,-1,-2,1,-2,0,-2,-3,1757008293085956096
0,4.734169483,20250904135133101,None,0,1,0,-2,-3,-4,-2,-4,1757008293100758552
0,4.734447718,20250904135133101,None,3,4,2,-2,-3,-2,-5,0,1757008293100940227
0,4.741760016,20250904135133109,None,-3,-4,-1,0,0,-2,1,-1,1757008293108398675
0,4.742318153,20250904135133109,None,0,-4,-3,-2,-1,-2,-1,1,1757008293108598470
0,4.749235153,20250904135133116,None,-8,2,1,-3,1,0,-2,-1,1757008293115904808
0,4.749457836,20250904135133116,None,2,3,-2,-3,-2,-13,0,10,1757008293116086006
0,4.7643272880000005,20250904135133131,None,-4,2,-2,2,1,-1,-1,-10,1757008293130843639
0,4.7646377090000005,20250904135133132,None,-5,-2,0,1,3,2,1,-2,1757008293131038427
0,4.771251917,20250904135133138,None,1,-3,-2,-1,-1,5,2,-3,1757008293138065338
0,4.771448374,20250904135133138,None,-4,-1,-1,0,2,1,-1,2,1757008293138173580
0,4.778454781,20250904135133145,None,2,-1,0,1,1,-4,-12,-4,1757008293145464420
0,4.778596878,20250904135133146,None,2,0,0,3,8,0,2,-1,1757008293145574331
0,4.794180632,20250904135133161,None,-2,-2,0,-3,2,16,6,1,1757008293160703659
0,4.794463635,20250904135133161,None,1,-5,-2,-7,-7,-34,-3,-2,1757008293160904169
0,4.801375389,20250904135133168,None,1,-2,1,1,-1,2,-3,-2,1757008293168105840
0,4.801582336,20250904135133169,None,-2,-1,-2,2,3,-1,-3,2,1757008293168282032
0,4.809105158,20250904135133176,None,-1,-4,0,-6,-12,4,4,-1,1757008293175735950
0,4.809346437,20250904135133176,None,0,5,2,-4,0,2,-2,-4,1757008293175907611
0,4.823986769,20250904135133191,None,-1,2,-3,12,2,2,2,7,1757008293190644264
0,4.824158669,20250904135133191,None,-2,-2,-1,-4,1,0,4,1,1757008293190827846
0,4.831555605,20250904135133199,None,-3,-1,1,-14,-4,-2,-3,-7,1757008293198307275
0,4.831760407,20250904135133199,None,-5,-4,-1,9,-1,0,-5,-11,1757008293198475360
0,4.83942914,20250904135133206,None,-1,-1,0,5,-3,1,2,5,1757008293205988407
0,4.839669704,20250904135133207,None,-7,-8,-4,-1,8,1,5,5,1757008293206200122
0,4.8542740349999995,20250904135133221,None,1,4,3,1,-2,3,2,0,1757008293220820903
0,4.854533434,20250904135133222,None,-3,-2,-2,-2,-5,-10,-8,-4,1757008293221038818
0,4.8615098,20250904135133229,None,16,-2,0,-3,-3,-7,0,3,1757008293228164196
0,4.861716747,20250904135133229,None,-4,1,0,-1,-5,-3,2,-2,1757008293228395938
0,4.868688345,20250904135133236,None,3,1,-1,1,5,3,16,2,1757008293235524415
0,4.868886232,20250904135133236,None,-4,-3,1,-1,-3,-2,-5,-1,1757008293235629558
0,4.883902311,20250904135133251,None,-1,-2,-2,-2,2,5,-1,-1,1757008293250605344
0,4.884501696,20250904135133251,None,0,0,0,-1,2,3,1,-3,1757008293250729799
0,4.891067266,20250904135133258,None,-7,-4,0,-3,1,-2,0,0,1757008293258013725
0,4.891222239,20250904135133258,None,6,-3,-2,0,-7,-4,2,-3,1757008293258119821
0,4.898535013,20250904135133266,None,0,-1,-3,2,-2,10,0,-2,1757008293265610456
0,4.898697853,20250904135133266,None,1,-2,0,-2,-3,-1,1,1,1757008293265732765
0,4.91358614,20250904135133281,None,-2,-1,-2,-1,8,12,0,-4,1757008293280621051
0,4.91370821,20250904135133281,None,-2,-4,0,1,-6,-11,-12,1,1757008293280764102
0,4.921025038,20250904135133288,None,-1,1,-2,-8,-1,6,6,0,1757008293288112878
0,4.921122789,20250904135133288,None,-2,0,-1,-9,2,-6,4,-3,1757008293288247823
0,4.928499937,20250904135133295,None,0,0,2,3,-6,-13,-9,3,1757008293295571565
0,4.928605318,20250904135133296,None,-7,1,0,9,4,4,0,-11,1757008293295694589
0,4.943893671,20250904135133311,None,0,-4,1,-9,-4,3,0,-1,1757008293310750722
0,4.944060564,20250904135133311,None,6,3,-1,3,0,3,1,-1,1757008293310946464
0,4.951144218,20250904135133318,None,3,0,-1,4,5,-1,-2,4,1757008293318139076
0,4.951285839,20250904135133318,None,14,-2,-2,-2,-5,-2,-4,2,1757008293318253755
0,4.958453655,20250904135133325,None,-4,-2,-1,-2,-1,-3,3,-3,1757008293325590372
0,4.958554745,20250904135133326,None,-2,0,-4,2,4,-6,-4,-2,1757008293325707197
0,4.973548651,20250904135133341,None,-2,-3,-1,-5,-12,-8,-2,4,1757008293340573072
0,4.973701715,20250904135133341,None,-2,-6,2,1,-3,0,-2,1,1757008293340705394
0,4.981063128,20250904135133348,None,1,0,-1,7,-5,3,9,0,1757008293348129749
0,4.9811759,20250904135133348,None,-1,-3,-2,-10,-5,-1,-15,-3,1757008293348254680
0,4.988422155,20250904135133355,None,-10,-1,-2,2,-1,0,2,2,1757008293355528116
0,4.988510609,20250904135133355,None,-2,0,0,2,5,6,7,0,1757008293355642795
0,5.003538132,20250904135133371,None,0,-2,-2,2,-2,-11,-9,9,1757008293370589256
0,5.003645182,20250904135133371,None,7,0,-1,-20,-11,-1,-4,-10,1757008293370719671
0,5.01105237,20250904135133378,None,-1,-1,0,11,3,-2,-3,0,1757008293378111839
0,5.011146784,20250904135133378,None,-1,1,0,0,-7,0,2,0,1757008293378255367
0,5.0184443,20250904135133385,None,-14,-2,-2,-1,2,-4,-2,-3,1757008293385582447
0,5.018526554,20250904135133385,None,1,-2,1,0,0,-2,-3,0,1757008293385692834
0,5.03353405,20250904135133401,None,-3,1,3,-3,3,21,2,2,1757008293400587558
0,5.033654928,20250904135133401,None,-2,0,-1,-1,-11,-22,-2,-4,1757008293400705337
0,5.041252852,20250904135133408,None,1,0,2,7,4,-53,-7,2,1757008293408080577
0,5.041431427,20250904135133408,None,0,-4,1,0,1,4,5,2,1757008293408200740
0,5.048567534,20250904135133416,None,-5,-2,3,-1,2,8,1,1,1757008293415588855
0,5.048680067,20250904135133416,None,-3,1,-1,4,1,5,-4,-4,1757008293415743589
0,5.063634396,20250904135133431,None,1,0,2,11,3,2,6,9,1757008293430678844
0,5.063760042,20250904135133431,None,-5,-2,0,-15,-8,-13,-17,-8,1757008293430809974
0,5.071008444,20250904135133438,None,4,2,1,0,6,6,-1,-1,1757008293438065052
0,5.071120739,20250904135133438,None,4,-2,0,2,-4,-2,8,9,1757008293438260078
0,5.078320026,20250904135133445,None,-2,1,1,-3,1,6,1,-6,1757008293445538282
0,5.078438997,20250904135133445,None,-11,-2,-1,1,-3,0,2,-1,1757008293445703983
0,5.093453646,20250904135133460,None,1,0,-3,-18,-4,-1,-6,-9,1757008293460632085
0,5.093570232,20250904135133461,None,-9,-3,-1,5,12,4,-2,0,1757008293460759878
0,5.100845575,20250904135133468,None,16,1,1,6,-6,-3,15,2,1757008293468086957
0,5.101270437,20250904135133468,None,-1,-2,-3,-1,-7,-6,-12,0,1757008293468218564
0,5.108537912,20250904135133476,None,-3,-4,-3,-2,-2,0,-1,3,1757008293475536823
0,5.108702421,20250904135133476,None,1,-1,-2,0,2,5,-3,-4,1757008293475659608
0,5.123483896,20250904135133490,None,-2,0,-1,2,0,-5,3,2,1757008293490518331
0,5.123648405,20250904135133491,None,-4,-3,-2,5,3,5,8,3,1757008293490631818
0,5.131191254,20250904135133498,None,-3,-1,-2,-5,-4,-6,-8,-4,1757008293498150348
0,5.131362677,20250904135133498,None,-1,1,0,1,9,18,-4,-3,1757008293498334407
0,5.138455868,20250904135133505,None,-1,-2,-1,5,-3,-24,-5,-6,1757008293505489349
0,5.138624668,20250904135133506,None,0,1,0,-4,3,7,1,-2,1757008293505593299
0,5.153555393,20250904135133521,None,-4,-4,-7,0,0,9,8,-1,1757008293520570278
0,5.15371871,20250904135133521,None,-6,-3,2,5,-9,-5,-3,8,1757008293520705461
0,5.169175386,20250904135133536,None,2,2,0,2,1,-1,-3,0,1757008293536159992
0,5.169351101,20250904135133536,None,3,0,-2,1,-1,-1,-1,-5,1757008293536279916
0,5.170015812,20250904135133537,None,-1,-2,-3,-16,-4,2,-2,-1,1757008293537034034
0,5.1702075,20250904135133537,None,18,-3,0,-1,1,-7,-4,6,1757008293537141084
0,5.183588028,20250904135133551,None,5,1,2,13,3,-55,-2,2,1757008293550602197
0,5.183754444,20250904135133551,None,-14,1,-3,-5,-2,2,3,-6,1757008293550734043
0,5.191070557,20250904135133558,None,3,-1,-4,-3,-2,-3,-6,6,1757008293558075189
0,5.191246033,20250904135133558,None,-1,0,0,-1,-6,-6,3,0,1757008293558193445
0,5.198806047,20250904135133566,None,2,1,-1,-1,3,1,-6,-11,1757008293565594196
0,5.19903183,20250904135133566,None,-4,-5,1,-2,-2,-6,-4,0,1757008293565702676
0,5.213719606,20250904135133581,None,-2,0,0,6,3,0,2,3,1757008293580531120
0,5.214214325,20250904135133581,None,-3,-1,-1,7,1,1,1,1,1757008293580639839
0,5.221252918,20250904135133588,None,-3,-2,0,-7,0,-5,-1,-5,1757008293588013172
0,5.221424341,20250904135133588,None,2,1,-3,-1,-7,-1,2,3,1757008293588109254
0,5.228652954,20250904135133596,None,0,4,-2,-3,-4,-2,0,-3,1757008293595516204
0,5.228878737,20250904135133596,None,-3,0,3,1,0,3,13,0,1757008293595614910
0,5.243735552,20250904135133611,None,-5,-3,-1,4,6,1,-4,0,1757008293610555410
0,5.2439785,20250904135133611,None,2,-4,-4,0,-12,-4,-1,-1,1757008293610667228
0,5.251241207,20250904135133618,None,-3,3,2,19,1,4,1,-4,1757008293618058443
0,5.251455069,20250904135133618,None,-5,1,-1,-29,-8,-10,-3,1,1757008293618159055
0,5.258720875,20250904135133626,None,-1,-3,1,1,1,1,11,-2,1757008293625542640
0,5.258965015,20250904135133626,None,-1,1,0,8,4,10,0,10,1757008293625645399
0,5.273757696,20250904135133641,None,-3,-4,-4,-5,-5,-2,-9,-5,1757008293640527009
0,5.274339199,20250904135133641,None,-8,-4,-2,12,7,3,-1,-7,1757008293640630960
0,5.2812922,20250904135133648,None,6,1,-4,-1,1,0,1,1,1757008293648048162
0,5.28147316,20250904135133648,None,1,-1,0,4,-2,1,6,3,1757008293648148775
0,5.288541317,20250904135133656,None,1,2,-1,-2,0,-1,0,6,1757008293655526638
0,5.288723707,20250904135133656,None,-4,-1,-3,-7,-6,-5,-2,0,1757008293655636310
0,5.303104401,20250904135133670,None,-4,-1,0,-2,-1,-4,2,-1,1757008293670356750
0,5.303150654,20250904135133670,None,-1,-4,-1,1,6,0,5,-4,1757008293670430898
0,5.310818434,20250904135133678,None,-1,-4,5,-1,-1,2,-3,4,1757008293677982807
0,5.310917854,20250904135133678,None,0,-3,-3,0,-5,30,-5,-10,1757008293678073644
0,5.318529129,20250904135133686,None,0,0,-2,-8,-5,1,0,-2,1757008293685564517
0,5.31871891,20250904135133686,None,-4,-3,-1,1,-6,0,1,0,1757008293685666799
0,5.333524466,20250904135133701,None,-18,-1,-1,-1,-3,2,0,-4,1757008293700499773
0,5.333723068,20250904135133701,None,3,-5,0,11,2,1,-3,3,1757008293700623273
0,5.340991259,20250904135133708,None,0,1,-2,-23,-7,-6,-5,-2,1757008293707944631
0,5.341217756,20250904135133708,None,2,-2,1,5,4,-1,-15,6,1757008293708065271
0,5.348407984,20250904135133715,None,-1,1,-1,6,2,5,-8,-7,1757008293715425729
0,5.348585129,20250904135133716,None,-5,-3,-5,-6,6,1,-1,-6,1757008293715540885
0,5.363542795,20250904135133731,None,-13,1,2,2,-9,-10,5,-6,1757008293730502843
0,5.363737106,20250904135133731,None,4,0,1,-3,4,18,2,2,1757008293730644226
0,5.371011734,20250904135133738,None,1,-1,-2,1,1,-29,0,3,1757008293737976312
0,5.371195078,20250904135133738,None,-4,0,3,3,-3,4,1,0,1757008293738103866
0,5.378476381,20250904135133745,None,4,1,1,-2,3,5,1,-1,1757008293745470762
0,5.378641844,20250904135133746,None,-4,-1,-3,-12,-7,0,-4,2,1757008293745617151
0,5.393454313,20250904135133760,None,0,-3,-3,1,3,-7,-2,-1,1757008293760457277
0,5.393678188,20250904135133761,None,-7,-3,0,-6,0,0,0,-5,1757008293760592699
0,5.400864124,20250904135133768,None,-2,-6,-4,1,3,3,1,-2,1757008293767881870
0,5.401032209,20250904135133768,None,-4,-1,-1,3,6,2,5,0,1757008293767981052
0,5.408576965,20250904135133776,None,-1,0,-3,1,5,-7,-11,-3,1757008293775602340
0,5.408802271,20250904135133776,None,-3,0,1,11,-8,-2,-3,1,1757008293775769710
0,5.423579454,20250904135133791,None,0,-1,-1,-16,-4,-7,4,2,1757008293790593862
0,5.423757076,20250904135133791,None,-1,-2,-1,1,6,3,5,2,1757008293790711641
0,5.431433678,20250904135133798,None,3,-3,-7,1,-4,1,1,3,1757008293798211097
0,5.431617498,20250904135133799,None,-9,-6,2,3,1,0,-6,-11,1757008293798413753
0,5.438517571,20250904135133806,None,3,2,-3,-2,6,4,-3,-5,1757008293805562734
0,5.438682556,20250904135133806,None,-2,-7,-1,-3,-13,-4,-4,-1,1757008293805671930
0,5.453853846,20250904135133821,None,-18,-4,-2,1,-5,-17,1,1,1757008293820705652
0,5.454035997,20250904135133821,None,9,0,-1,3,4,5,1,5,1757008293820900440
0,5.461139679,20250904135133828,None,-1,1,2,0,-1,3,1,0,1757008293828198671
0,5.461278915,20250904135133828,None,-4,1,0,-5,0,3,17,1,1757008293828394651
0,5.46878171,20250904135133836,None,-1,3,-5,2,-3,-3,-8,-4,1757008293835776329
0,5.468856335,20250904135133836,None,-3,-2,-3,-5,-11,-6,-2,-3,1757008293835964202
0,5.483846903,20250904135133851,None,2,3,2,-4,-5,-2,-1,-2,1757008293850699663
0,5.484018326,20250904135133851,None,-2,-1,-1,3,5,-2,-3,0,1757008293850916385
0,5.491066933,20250904135133858,None,-3,-2,-2,4,2,2,3,-1,1757008293858077526
0,5.491252661,20250904135133858,None,-1,3,0,-1,1,-20,0,-3,1757008293858214855
0,5.498568535,20250904135133866,None,1,0,-3,-15,-8,5,0,2,1757008293865574598
0,5.498733759,20250904135133866,None,-2,1,0,7,-3,4,-1,-1,1757008293865715026
0,5.513816595,20250904135133881,None,3,-2,-3,-1,3,6,-1,1,1757008293880604743
0,5.514003992,20250904135133881,None,-2,0,0,-11,-7,-7,-4,-3,1757008293880734920
0,5.521259546,20250904135133888,None,-17,-3,0,4,2,1,-1,-7,1757008293888044834
0,5.521440268,20250904135133888,None,10,-1,0,7,1,-3,-5,3,1757008293888142108
0,5.528695583,20250904135133896,None,-4,-1,0,-17,-5,-4,0,3,1757008293895542621
0,5.528902769,20250904135133896,None,-7,1,-3,4,-2,-3,-4,-2,1757008293895652294
0,5.555017471,20250904135133922,None,2,-1,-2,-7,-5,3,3,4,1757008293918747186
0,5.555219889,20250904135133922,None,-3,0,2,-4,-2,-7,-1,2,1757008293918913364
0,5.555301905,20250904135133922,None,-4,-1,0,2,4,-1,3,-1,1757008293919487476
0,5.555330515,20250904135133922,None,0,0,-1,5,-9,2,2,-6,1757008293919586658
0,5.558376789,20250904135133925,None,-1,-1,-2,-3,-4,-8,-10,-4,1757008293925488233
0,5.558527231,20250904135133926,None,-3,-1,-1,0,6,3,-1,-4,1757008293925771713
0,5.573526621,20250904135133941,None,3,3,-1,-3,-4,-6,4,1,1757008293940588235
0,5.573686361,20250904135133941,None,-2,0,-2,-4,-8,-5,0,2,1757008293940723419
0,5.580852985,20250904135133948,None,-6,1,-1,5,0,2,1,-3,1757008293947999477
0,5.580990791,20250904135133948,None,2,2,-1,-5,9,-2,-1,3,1757008293948096990
0,5.58845377,20250904135133955,None,0,0,2,-4,-10,-3,-2,-1,1757008293955550909
0,5.58864212,20250904135133956,None,-2,-2,-1,-8,-4,-9,-22,-1,1757008293955667734
0,5.603526592,20250904135133971,None,-2,0,0,6,3,1,4,3,1757008293970653295
0,5.603681564,20250904135133971,None,-8,-4,0,1,-6,-1,2,3,1757008293970809459
0,5.611045122,20250904135133978,None,4,4,1,-4,-2,18,-2,-6,1757008293978029251
0,5.611227512,20250904135133978,None,-4,0,-1,1,-2,-31,-8,7,1757008293978162765
0,5.626106024,20250904135133993,None,-12,-5,-1,0,-4,3,-1,-1,1757008293993028879
0,5.626303196,20250904135133993,None,3,-2,-1,-1,-1,4,7,-3,1757008293993167161
0,5.633447647,20250904135134000,None,-2,0,1,-4,-3,1,-5,-3,1757008294000516653
0,5.63364315,20250904135134001,None,1,1,0,2,-3,-6,-5,-4,1757008294000622510
0,5.640846729,20250904135134008,None,-1,-3,0,0,0,1,-3,-2,1757008294008088827
0,5.640951633,20250904135134008,None,-3,-1,-3,-9,-7,-3,-1,-2,1757008294008196592
0,5.655850649,20250904135134023,None,-3,0,-1,-3,1,5,0,1,1757008294023041009
0,5.655976057,20250904135134023,None,-3,-4,1,-5,-4,-4,-3,-3,1757008294023145675
0,5.663499117,20250904135134030,None,0,-3,0,4,-2,-1,2,5,1757008294030583143
0,5.663710117,20250904135134031,None,1,-1,5,3,2,-2,-1,-6,1757008294030695676
0,5.670823813,20250904135134038,None,-7,-1,-2,-4,2,-1,-2,-10,1757008294038062572
0,5.670928478,20250904135134038,None,-1,-5,-1,-3,-3,-2,8,3,1757008294038176536
0,5.685803175,20250904135134053,None,0,-2,-3,12,2,-5,-7,-1,1757008294053047180
0,5.685905218,20250904135134053,None,-4,-3,0,-14,7,2,1,3,1757008294053157091
0,5.693263531,20250904135134060,None,2,0,-6,-7,-4,-2,2,-5,1757008294060495138
0,5.693382263,20250904135134060,None,-11,-2,-2,5,5,2,-6,-3,1757008294060601234
0,5.7007374760000005,20250904135134068,None,8,0,2,2,1,6,3,0,1757008294068056583
0,5.700820923,20250904135134068,None,-5,-1,1,3,1,0,-5,-1,1757008294068157911
0,5.716300488,20250904135134083,None,-4,-3,-1,0,2,-6,1,0,1757008294083526611
0,5.716424465,20250904135134083,None,-6,-4,-3,1,1,-1,0,-2,1757008294083675146
0,5.723300695,20250904135134090,None,3,-3,0,-4,-2,4,6,2,1757008294090558767
0,5.7233829499999995,20250904135134090,None,-4,-2,-3,-5,-4,-3,-5,-5,1757008294090670108
0,5.731053829,20250904135134098,None,-1,-1,-1,6,3,0,0,1,1757008294098053932
0,5.731228828,20250904135134098,None,-4,-3,3,-4,3,7,-1,1,1757008294098161220
0,5.746032476,20250904135134113,None,1,2,-4,-2,0,-6,-1,-1,1757008294113027334
0,5.746210337,20250904135134113,None,-1,-3,-4,-1,0,21,2,4,1757008294113135814
0,5.7534945010000005,20250904135134120,None,0,2,-4,-6,-1,-33,-20,-5,1757008294120515823
0,5.753674984,20250904135134121,None,-2,-2,-1,3,2,7,-5,-12,1757008294120615959
0,5.760953665,20250904135134128,None,-1,-2,-2,0,4,7,1,-6,1757008294128034591
0,5.76115799,20250904135134128,None,-6,0,-2,-2,-5,0,-2,0,1757008294128143310
0,5.77587986,20250904135134143,None,2,0,3,3,4,-18,3,4,1757008294143064022
0,5.776421309,20250904135134143,None,-9,-1,-4,-7,4,2,-2,-2,1757008294143198490
0,5.783482313,20250904135134150,None,6,0,0,-1,-6,1,-2,0,1757008294150511980
0,5.783658505,20250904135134151,None,0,-5,0,-4,-2,-2,2,0,1757008294150610208
0,5.791235209,20250904135134158,None,5,-3,-3,4,1,-1,-3,6,1757008294158033132
0,5.791404963,20250904135134158,None,-3,1,-3,3,-3,-1,-3,-9,1757008294158125400
0,5.806269646,20250904135134173,None,-2,-1,0,-21,-4,0,1,-5,1757008294173031568
0,5.8064508440000004,20250904135134173,None,1,-2,0,1,1,3,1,2,1757008294173130035
0,5.813668489,20250904135134181,None,1,-2,-1,5,0,-4,-5,4,1757008294180510997
0,5.81387496,20250904135134181,None,-1,1,-1,-1,0,-2,0,-2,1757008294180570363
0,5.821196795,20250904135134188,None,-5,-3,1,2,0,2,2,0,1757008294187998771
0,5.821390867,20250904135134188,None,3,0,-2,4,5,0,-6,-1,1757008294188097238
0,5.836254835,20250904135134203,None,0,0,0,-2,-7,0,-2,-6,1757008294203051090
0,5.836438179,20250904135134203,None,-1,-3,2,-3,-7,-8,0,-1,1757008294203149080
0,5.843695641,20250904135134211,None,-18,3,-4,-2,3,9,-1,-1,1757008294210550546
0,5.843895197,20250904135134211,None,9,1,-1,3,0,0,5,1,1757008294210650682
0,5.851246357,20250904135134218,None,-7,-1,-2,-2,0,-5,-5,7,1757008294218041419
0,5.8514282699999995,20250904135134218,None,-5,-3,-5,-2,-4,-4,-5,-13,1757008294218133687
0,5.865783215,20250904135134233,None,-3,-2,0,2,-2,1,-2,-6,1757008294232920408
0,5.865890026,20250904135134233,None,4,0,-4,-4,-5,-5,-2,4,1757008294233040809
0,5.873251677,20250904135134240,None,-3,-2,-1,1,6,6,5,2,1757008294240518331
0,5.873344183,20250904135134240,None,0,-3,-4,-4,-5,-17,-5,0,1757008294240622520
0,5.880805492,20250904135134248,None,-1,0,-2,-2,1,7,2,1,1757008294248010396
0,5.880919457,20250904135134248,None,-1,-1,-3,0,-3,1,0,-3,1757008294248114347
0,5.895873308,20250904135134263,None,-4,0,1,-1,-1,-1,-7,-1,1757008294263065576
0,5.895991325,20250904135134263,None,2,1,-1,3,6,2,-1,-1,1757008294263170480
0,5.903316021,20250904135134270,None,6,-3,-1,-1,-4,-2,-3,-1,1757008294270580053
0,5.903397799,20250904135134270,None,0,-1,0,15,4,0,0,4,1757008294270698547
0,5.910940886,20250904135134278,None,-9,-6,-4,-21,4,5,0,-9,1757008294278056859
0,5.911108732,20250904135134278,None,-1,1,-1,-1,-4,-1,2,-2,1757008294278169870
0,5.9265396599999995,20250904135134294,None,-3,-1,-1,2,0,2,1,-4,1757008294293205022
0,5.926730633,20250904135134294,None,2,-1,1,-6,-5,-5,-1,3,1757008294293416738
0,5.934167385,20250904135134301,None,0,-4,-2,2,3,4,-2,-2,1757008294300742387
0,5.934427977,20250904135134301,None,-3,-2,-1,3,-2,-8,-7,-9,1757008294300914525
0,5.941469193,20250904135134308,None,-3,-1,2,-2,1,-1,-1,-3,1757008294308223009
0,5.941636801,20250904135134309,None,-1,-4,1,6,5,7,3,2,1757008294308430910
0,5.957406521,20250904135134324,None,-5,-1,-1,-1,-6,-6,1,0,1757008294323923349
0,5.957666874,20250904135134325,None,3,0,-2,-3,-5,-1,-1,-2,1757008294324140071
0,5.96378994,20250904135134331,None,7,2,3,-2,0,0,5,6,1757008294330643415
0,5.964318752,20250904135134331,None,10,-2,-3,-6,-2,47,1,1,1757008294330811738
0,5.971057415,20250904135134338,None,-3,1,0,-5,-7,-3,-7,1,1757008294338035345
0,5.971214533,20250904135134338,None,-4,3,-1,0,-2,1,3,-1,1757008294338137388
0,5.986132383,20250904135134353,None,-3,-1,-3,2,-5,2,4,0,1757008294353120088
0,5.986270189,20250904135134353,None,-3,-2,-3,4,6,4,-5,-1,1757008294353260755
0,5.993849039,20250904135134361,None,-9,2,-4,4,-3,-8,-8,-2,1757008294360747575
0,5.993960142,20250904135134361,None,3,0,2,3,1,0,5,-3,1757008294360941886
0,6.001190901,20250904135134368,None,-3,-1,0,1,-4,0,-4,7,1757008294368254184
0,6.001251221,20250904135134368,None,-5,-3,1,0,2,-2,-2,-12,1757008294368424177
0,6.016574144,20250904135134384,None,4,1,-2,4,0,17,0,-2,1757008294383301734
0,6.016746998,20250904135134384,None,1,-4,2,10,2,-17,-1,-3,1757008294383479118
0,6.023733616,20250904135134391,None,-2,-2,-4,-24,-6,1,-3,-8,1757008294390739679
0,6.023848772,20250904135134391,None,0,2,0,-3,5,4,5,-1,1757008294390911340
0,6.031446457,20250904135134398,None,-4,-1,-3,5,-3,-4,-5,-1,1757008294398317575
0,6.031658649,20250904135134399,None,-1,-4,0,3,3,-2,1,3,1757008294398504495
0,6.046313763,20250904135134413,None,-2,-3,-2,-1,-4,-1,-1,0,1757008294413182497
0,6.046462297,20250904135134413,None,9,3,6,3,-2,-1,1,1,1757008294413391351
0,6.053667069,20250904135134421,None,5,1,3,2,3,2,1,-3,1757008294420615673
0,6.053875208,20250904135134421,None,-1,-1,-3,-4,-6,-5,-6,-3,1757008294420786142
0,6.061183214,20250904135134428,None,-2,2,-2,-2,1,-4,-2,-5,1757008294428131818
0,6.061329126,20250904135134428,None,3,1,-2,-1,-2,-1,1,-1,1757008294428255796
0,6.07626009,20250904135134443,None,-3,-3,2,-2,3,5,2,4,1757008294443094730
0,6.076424122,20250904135134443,None,-3,1,-1,-2,-2,-3,4,1,1757008294443288087
0,6.083398342,20250904135134450,None,0,-2,-1,-6,-5,-3,-6,2,1757008294450528860
0,6.083526611,20250904135134450,None,1,0,1,-1,-1,-2,-3,-9,1757008294450646162
0,6.091092825,20250904135134458,None,-5,-2,0,0,1,1,-4,-3,1757008294458053112
0,6.09128356,20250904135134458,None,-4,-3,0,1,1,1,4,-1,1757008294458184719
0,6.10625267,20250904135134473,None,0,-3,3,-1,3,7,18,5,1757008294473121881
0,6.106446981,20250904135134473,None,-6,-3,-1,-3,2,-5,-24,-7,1757008294473311424
0,6.113595486,20250904135134481,None,1,2,-1,-2,-3,-2,-5,-2,1757008294480587005
0,6.113818646,20250904135134481,None,-3,-1,-5,-1,0,2,2,11,1757008294480737686
0,6.12103653,20250904135134488,None,3,-1,2,1,-1,-5,2,-1,1757008294488037347
0,6.121212244,20250904135134488,None,0,0,-3,-1,0,-2,-1,-9,1757008294488142490
0,6.136114121,20250904135134503,None,-6,-5,-3,0,0,-4,-3,0,1757008294503058671
0,6.136327267,20250904135134503,None,-1,1,-2,-4,-5,-3,3,-2,1757008294503196477
0,6.1437478070000004,20250904135134511,None,-14,0,1,1,2,5,1,-7,1757008294510662317
0,6.143959045,20250904135134511,None,6,-2,1,-3,4,-51,2,5,1757008294510812520
0,6.151152372,20250904135134518,None,-5,-3,-2,-14,-7,-4,1,-4,1757008294518183708
0,6.151283264,20250904135134518,None,0,-3,2,4,3,3,-4,3,1757008294518385410
0,6.166292191,20250904135134533,None,-4,1,0,0,-4,-2,1,-2,1757008294533155918
0,6.166469097,20250904135134533,None,0,1,-1,0,4,-1,-3,-7,1757008294533355951
0,6.173793554,20250904135134541,None,-3,0,0,3,-1,-1,-3,-9,1757008294540797233
0,6.173881769,20250904135134541,None,-2,-2,-2,-2,0,2,-3,0,1757008294540984869
0,6.1812140939999995,20250904135134548,None,0,-3,2,0,-1,2,-6,3,1757008294548207283
0,6.181293488,20250904135134548,None,1,1,-3,-1,3,-8,3,1,1757008294548420667
0,6.196265221,20250904135134563,None,-3,0,0,0,1,-4,5,2,1757008294563269138
0,6.196418047,20250904135134563,None,0,2,0,-7,-6,-3,-3,-2,1757008294563449382
0,6.2037169930000005,20250904135134571,None,0,-3,-4,0,-3,-2,0,-2,1757008294570685863
0,6.203848839,20250904135134571,None,-1,-1,-1,-2,0,-3,-2,-1,1757008294570862054
0,6.218842506,20250904135134586,None,1,-1,-4,0,2,1,-3,-3,1757008294585727691
0,6.218974352,20250904135134586,None,2,0,0,4,7,6,5,0,1757008294585913896
0,6.226271153,20250904135134593,None,-1,-1,-1,-1,-1,-1,5,0,1757008294593268394
0,6.226377487,20250904135134593,None,1,-1,-4,-4,-3,-6,-7,2,1757008294593451738
0,6.233594894,20250904135134601,None,2,-2,0,-9,-3,0,-1,-1,1757008294600651979
0,6.233690739,20250904135134601,None,-7,-2,-2,-1,-3,1,-1,-1,1757008294600809574
0,6.24889946,20250904135134616,None,9,0,-2,-1,-3,-1,6,-1,1757008294615561008
0,6.249066591,20250904135134616,None,1,1,-3,-1,-1,-2,-6,-3,1757008294615782737
0,6.256044149,20250904135134623,None,-6,1,1,16,4,-4,-2,-1,1757008294623095750
0,6.256157398,20250904135134623,None,-1,1,1,-11,1,1,0,-1,1757008294623246669
0,6.263607264,20250904135134631,None,-21,0,-5,-7,-7,-4,-3,-10,1757008294630586862
0,6.263911009,20250904135134631,None,2,0,-1,0,1,3,0,9,1757008294630715131
0,6.270987511,20250904135134638,None,2,-2,-2,1,-7,-4,2,11,1757008294637994527
0,6.271165371,20250904135134638,None,3,0,0,4,4,3,-2,-8,1757008294638100624
0,6.285991669,20250904135134653,None,-2,-4,-1,-5,-1,2,10,-5,1757008294652993440
0,6.286166906,20250904135134653,None,-2,-1,2,1,4,9,-1,2,1757008294653095483
0,6.293751478,20250904135134661,None,-3,-2,1,-1,1,7,-2,2,1757008294660710811
0,6.293962717,20250904135134661,None,8,4,1,-3,-4,-29,1,0,1757008294660901308
0,6.301252604,20250904135134668,None,4,0,1,0,6,-32,-6,5,1757008294668151378
0,6.301429749,20250904135134668,None,-6,-1,-1,-1,2,4,-3,-2,1757008294668374061
0,6.316275597,20250904135134683,None,-2,-1,-2,-6,-5,-5,1,1,1757008294683212757
0,6.316439152,20250904135134683,None,-1,1,0,1,1,4,1,-2,1757008294683420181
0,6.323736429,20250904135134691,None,-4,-4,-3,-3,-2,1,4,1,1757008294690706968
0,6.323967934,20250904135134691,None,-6,-2,-2,0,3,5,2,4,1757008294690888404
0,6.33118844,20250904135134698,None,8,1,-1,-5,-11,-1,-1,-5,1757008294698273897
0,6.331398487,20250904135134698,None,-3,-1,1,-3,1,-4,-1,2,1757008294698626518
0,6.346304655,20250904135134713,None,-1,-1,1,0,4,-3,-4,3,1757008294713191270
0,6.346514463,20250904135134713,None,-4,-1,-1,0,3,2,4,-1,1757008294713404655
0,6.353736401,20250904135134721,None,0,2,1,11,3,0,4,11,1757008294720686197
0,6.353932381,20250904135134721,None,-2,0,-1,-12,-7,-2,-1,-8,1757008294720869541
0,6.361208677,20250904135134728,None,-4,0,-1,-4,-1,-4,-7,-8,1757008294728127956
0,6.361386776,20250904135134728,None,-3,-3,-3,3,5,1,-2,-7,1757008294728286981
0,6.376250029,20250904135134743,None,5,-1,-2,-5,1,8,4,4,1757008294743186712
0,6.37639451,20250904135134743,None,-5,0,1,4,5,5,1,3,1757008294743393182
0,6.383745909,20250904135134751,None,-15,-4,-1,5,2,-10,-10,-1,1757008294750719308
0,6.383947372,20250904135134751,None,1,4,1,-5,5,-1,0,-1,1757008294750904560
0,6.391258717,20250904135134758,None,-2,-5,-3,-1,-5,-5,3,2,1757008294758214950
0,6.391424894,20250904135134758,None,-4,1,0,8,0,7,1,1,1757008294758429765
0,6.406374931,20250904135134773,None,0,0,3,-12,-2,-3,-1,-4,1757008294773174524
0,6.4065666199999995,20250904135134774,None,-3,-1,0,1,-2,-2,0,6,1757008294773410081
0,6.413948298,20250904135134781,None,1,-3,0,-3,-4,3,-1,-1,1757008294780707120
0,6.414134502,20250904135134781,None,-1,-2,-2,1,-3,-3,1,-2,1757008294780878305
0,6.421268463,20250904135134788,None,0,-2,0,0,-3,-4,1,5,1757008294788203001
0,6.421433449,20250904135134788,None,-1,-2,2,5,-3,-11,-3,-1,1757008294788409709
0,6.436349154,20250904135134803,None,13,0,-3,-10,-1,5,-3,2,1757008294803282976
0,6.436526775,20250904135134804,None,-1,-1,0,-4,-2,-3,1,2,1757008294803467035
0,6.44370389,20250904135134811,None,-7,-1,-4,0,3,3,-2,-1,1757008294810706853
0,6.443932295,20250904135134811,None,0,2,-1,6,4,1,-3,-3,1757008294810885190
0,6.45124507,20250904135134818,None,-4,-4,-2,-22,-5,-4,8,0,1757008294818197250
0,6.451409817,20250904135134818,None,-1,1,-3,4,5,-7,-9,-1,1757008294818410396
0,6.46616292,20250904135134833,None,-3,0,-2,-1,-5,-4,10,1,1757008294833099842
0,6.46632576,20250904135134833,None,-4,-3,-2,2,2,1,-17,3,1757008294833268880
0,6.473591328,20250904135134841,None,2,1,0,0,-3,0,-1,-8,1757008294840603828
0,6.473762989,20250904135134841,None,5,1,2,10,2,2,-3,-8,1757008294840768098
0,6.481256962,20250904135134848,None,2,-2,0,-8,6,0,-1,-3,1757008294848186016
0,6.481433153,20250904135134848,None,2,0,1,-1,-10,-6,1,1,1757008294848395109
0,6.496268511,20250904135134863,None,-2,-1,-4,-4,-3,-3,-2,1,1757008294863216400
0,6.496432543,20250904135134863,None,-1,-2,-3,-7,-3,-2,-3,-3,1757008294863438129
0,6.503744841,20250904135134871,None,-1,-2,-1,-1,0,5,0,3,1757008294870723724
0,6.503960848,20250904135134871,None,-3,-1,-4,-1,-3,-2,-1,2,1757008294870918035
0,6.511301756,20250904135134878,None,2,-1,0,-2,-2,-1,2,-4,1757008294878224372
0,6.511478901,20250904135134878,None,1,2,2,-3,-3,-3,-1,1,1757008294878453254
0,6.526470423,20250904135134893,None,-13,-2,-1,1,4,3,7,-3,1757008294893300533
0,6.526669264,20250904135134894,None,8,1,1,5,-4,4,-1,3,1757008294893605709
0,6.533809662,20250904135134901,None,1,-3,-1,0,6,-9,-10,-1,1757008294900746345
0,6.534000635,20250904135134901,None,-1,-4,1,2,-5,0,-1,0,1757008294900928258
0,6.541280746,20250904135134908,None,-3,-1,-2,-4,-3,5,8,1,1757008294908258199
0,6.541461706,20250904135134908,None,-2,-1,-1,-16,-9,-20,-8,-4,1757008294908444881
0,6.556484461,20250904135134923,None,3,2,0,6,-2,4,1,12,1757008294923281908
0,6.556666613,20250904135134924,None,-1,-5,-1,4,1,3,0,-10,1757008294923673868
0,6.563819885,20250904135134931,None,-6,-1,-4,-3,5,5,-3,-4,1757008294930711269
0,6.563998222,20250904135134931,None,-1,4,-2,0,1,0,-1,-2,1757008294930931568
0,6.578981876,20250904135134946,None,-5,-2,-2,9,1,-1,3,4,1757008294945738315
0,6.5791471,20250904135134946,None,4,-2,4,-11,1,-4,-4,-2,1757008294945929527
0,6.58611846,20250904135134953,None,-3,-3,-1,-4,-11,-1,8,1,1757008294953120946
0,6.586218596,20250904135134953,None,2,-2,-2,2,1,5,1,-2,1757008294953250885
0,6.593893528,20250904135134961,None,-3,-1,-3,5,11,5,-2,6,1757008294960608959
0,6.594181538,20250904135134961,None,-2,-1,-3,-6,-18,5,2,-6,1757008294960776090
0,6.608512402,20250904135134975,None,0,-5,-1,-4,0,-7,-16,2,1757008294975527286
0,6.608618498,20250904135134976,None,-3,-2,-4,-1,-1,-5,-8,-4,1757008294975632905
0,6.615912437,20250904135134983,None,3,0,-1,2,2,1,0,0,1757008294983017206
0,6.615996599,20250904135134983,None,8,-4,1,5,2,-2,2,1,1757008294983123540
0,6.623263836,20250904135134990,None,16,-1,-2,-2,2,3,3,4,1757008294990483045
0,6.623311281,20250904135134990,None,-1,1,0,-4,-1,-7,-1,-1,1757008294990622997
0,6.638464689,20250904135135005,None,0,2,-2,6,4,-1,-1,1,1757008295005532503
0,6.638554812,20250904135135006,None,-3,-1,-4,-19,-8,-3,4,7,1757008295005654335
0,6.645897627,20250904135135013,None,-2,-3,-4,-4,-3,-7,-6,-6,1757008295012990474
0,6.645986795,20250904135135013,None,2,2,3,3,-2,2,-3,-6,1757008295013091802
0,6.653520107,20250904135135021,None,-1,-1,1,0,0,-6,-5,-9,1757008295020499467
0,6.65370822,20250904135135021,None,0,-2,0,4,4,-1,-1,3,1757008295020601272
0,6.668586254,20250904135135036,None,-3,0,2,7,0,-1,-2,4,1757008295035625696
0,6.668742418,20250904135135036,None,-2,-2,-1,-9,-3,5,3,1,1757008295035781383
0,6.675841093,20250904135135043,None,-2,-4,-3,2,4,-5,-4,1,1757008295043040752
0,6.675932884,20250904135135043,None,5,1,1,-1,-7,-17,-14,1,1757008295043195247
0,6.683248282,20250904135135050,None,-5,0,1,-8,1,1,2,-2,1757008295050522089
0,6.683332205,20250904135135050,None,0,-1,-3,2,-5,1,0,5,1757008295050644636
0,6.698503256,20250904135135066,None,-1,-4,0,-2,0,2,3,-9,1757008295065499305
0,6.69870019,20250904135135066,None,0,-1,-2,2,3,2,1,1,1757008295065623760
0,6.706029654,20250904135135073,None,6,-1,-2,-1,7,-1,-2,3,1757008295073003053
0,6.706224203,20250904135135073,None,1,-3,-2,-3,-15,10,2,3,1757008295073118925
0,6.713445187,20250904135135080,None,-4,-1,0,1,-8,-12,-1,0,1757008295080493211
0,6.713625431,20250904135135081,None,-3,-1,-3,1,0,-3,0,2,1757008295080602884
0,6.728508472,20250904135135096,None,2,-3,-4,-7,2,-3,-1,-9,1757008295095506191
0,6.728685379,20250904135135096,None,-3,-3,0,1,2,-1,-6,-7,1757008295095622539
0,6.736018896,20250904135135103,None,1,-1,1,7,4,4,3,1,1757008295103018999
0,6.736218691,20250904135135103,None,-3,1,-2,4,0,3,-6,0,1757008295103132724
0,6.743458986,20250904135135110,None,-3,-3,-2,-20,-3,-2,-2,-2,1757008295110494136
0,6.743625879,20250904135135111,None,-1,-1,1,3,1,0,4,10,1757008295110593557
0,6.758623123,20250904135135126,None,-3,0,-3,0,-3,-4,-6,-7,1757008295125485658
0,6.758825064,20250904135135126,None,1,2,3,7,3,-42,6,2,1757008295125590562
0,6.765901089,20250904135135133,None,-12,-4,0,-4,-3,-1,-21,-7,1757008295132870435
0,6.766044378,20250904135135133,None,9,-1,0,3,3,-2,3,-1,1757008295132981777
0,6.773496389,20250904135135140,None,-2,-1,-1,-1,-1,-4,2,1,1757008295140514612
0,6.77366209,20250904135135141,None,-3,-2,-5,-6,3,1,-3,0,1757008295140646696
0,6.7887187,20250904135135156,None,3,-2,-4,0,-2,0,2,0,1757008295155537366
0,6.788965225,20250904135135156,None,-1,-2,-2,-1,0,0,0,1,1757008295155614137
0,6.796279192,20250904135135163,None,-2,0,0,0,-3,-1,2,-2,1757008295163042306
0,6.796473742,20250904135135163,None,-3,0,2,0,4,0,-1,-1,1757008295163150310
0,6.803693771,20250904135135171,None,5,-2,-3,-4,4,21,-1,0,1757008295170551538
0,6.803905726,20250904135135171,None,0,-5,-1,2,0,-34,-1,-3,1757008295170672893
0,6.818744183,20250904135135186,None,-4,-1,-2,-1,-4,4,1,-3,1757008295185572624
0,6.818962812,20250904135135186,None,-1,-1,-2,-3,-1,1,-7,-1,1757008295185708284
0,6.826211214,20250904135135193,None,3,1,2,1,-1,-5,-5,-1,1757008295193004131
0,6.826390266,20250904135135193,None,-1,0,2,0,-3,-9,-1,0,1757008295193099498
0,6.833652496,20250904135135201,None,1,1,0,6,0,-2,-5,-3,1757008295200510740
0,6.833875418,20250904135135201,None,-4,0,0,-1,1,5,11,6,1757008295200628280
0,6.848914146,20250904135135216,None,-1,-2,-3,10,-2,-1,-4,-10,1757008295215577363
0,6.849096537,20250904135135216,None,-2,-4,-1,-16,2,0,1,-12,1757008295215720415
0,6.856245279,20250904135135223,None,0,-3,0,-1,-9,-4,0,-3,1757008295223024368
0,6.856423616,20250904135135223,None,-2,0,-2,3,1,0,0,5,1757008295223128318
0,6.86359477,20250904135135231,None,-12,-2,0,1,5,7,3,2,1757008295230474472
0,6.863758564,20250904135135231,None,2,-1,-3,-1,-4,-9,-1,0,1757008295230588436
0,6.878674746,20250904135135246,None,8,4,-4,4,4,-4,-3,0,1757008295245504140
0,6.878886938,20250904135135246,None,0,-1,0,-7,-2,-2,2,-5,1757008295245623350
0,6.886196613,20250904135135253,None,-2,1,-2,-3,1,-2,0,1,1757008295253000497
0,6.886360407,20250904135135253,None,3,-3,0,-1,-7,1,1,1,1757008295253103733
0,6.893589735,20250904135135261,None,0,3,-2,0,0,5,3,-1,1757008295260460615
0,6.89375639,20250904135135261,None,-4,-1,1,0,0,-7,-5,1,1757008295260558128
0,6.9086465839999995,20250904135135276,None,-1,-3,-1,-4,-5,-7,-4,-1,1757008295275506496
0,6.908843517,20250904135135276,None,-1,3,-3,3,1,-4,1,-3,1757008295275606632
0,6.916184187,20250904135135283,None,-1,-1,-3,3,2,-2,-18,-6,1757008295282993316
0,6.916349649,20250904135135283,None,2,0,-2,-1,-6,-4,-3,1,1757008295283098220
0,6.923676014,20250904135135291,None,2,-1,2,4,0,-56,-1,3,1757008295290522098
0,6.923884392,20250904135135291,None,5,3,1,0,2,17,1,1,1757008295290615797
0,6.938798189,20250904135135306,None,0,-3,-1,-1,0,-32,-3,3,1757008295305607318
0,6.938981056,20250904135135306,None,-1,-1,0,-3,-3,-2,-1,-2,1757008295305724859
0,6.946527481,20250904135135314,None,2,3,0,-3,-4,2,1,1,1757008295313078165
0,6.946754456,20250904135135314,None,0,-1,-1,0,-2,-4,-3,-6,1757008295313248872
0,6.953526497,20250904135135321,None,0,-4,-2,4,2,6,1,7,1757008295320485115
0,6.953685045,20250904135135321,None,2,0,0,-4,-1,-2,0,-8,1757008295320588827
0,6.968565226,20250904135135336,None,-6,-1,-1,-14,-1,-2,-2,0,1757008295335566520
0,6.968702316,20250904135135336,None,4,-3,-1,7,4,0,-5,-15,1757008295335706710
0,6.976072311,20250904135135343,None,13,-3,0,1,-2,-5,-5,4,1757008295343051195
0,6.976183653,20250904135135343,None,-4,0,-1,-1,-1,-1,1,4,1757008295343175411
0,6.983464956,20250904135135350,None,-4,0,-4,2,4,0,1,-6,1757008295350537538
0,6.983593941,20250904135135351,None,4,0,-1,-8,-6,-4,1,6,1757008295350661277
0,6.998556614,20250904135135366,None,3,0,1,-2,-1,-10,-2,2,1757008295365567684
0,6.998672724,20250904135135366,None,3,-1,-1,1,3,-1,-1,-5,1757008295365700960
0,7.005908489,20250904135135373,None,-2,1,-1,-3,3,-1,1,0,1757008295372989654
0,7.006023884,20250904135135373,None,-4,-3,-3,-2,-3,4,-1,1,1757008295373109102
0,7.013494968,20250904135135380,None,-1,1,-1,9,2,2,-3,-6,1757008295380530595
0,7.01361084,20250904135135381,None,-3,-4,2,-14,-2,-1,3,-2,1757008295380663394
0,7.028488874,20250904135135395,None,3,-3,-2,6,-5,-1,-5,-2,1757008295395534992
0,7.028599024,20250904135135396,None,2,-2,-1,0,2,1,0,1,1757008295395665884
0,7.044246912,20250904135135411,None,-4,-3,-2,6,6,0,-2,1,1757008295411252498
0,7.044389486,20250904135135411,None,-5,-3,0,-3,-2,1,-1,-5,1757008295411394596
0,7.045146942,20250904135135412,None,4,4,-1,0,-3,-3,-1,2,1757008295412154674
0,7.045315266,20250904135135412,None,2,-1,-1,-2,-2,-2,3,-1,1757008295412539958
0,7.058735371,20250904135135426,None,-2,-2,-3,0,-1,-4,-5,2,1757008295425689935
0,7.058941364,20250904135135426,None,-3,-1,-1,-3,1,-3,-4,-2,1757008295425870895
0,7.066290855,20250904135135433,None,0,2,-1,4,2,2,-5,-1,1757008295433179855
0,7.066520691,20250904135135433,None,0,-2,-5,-17,-5,1,17,-1,1757008295433393955
0,7.073704958,20250904135135441,None,1,-4,1,1,2,8,-6,-3,1757008295440685510
0,7.073903561,20250904135135441,None,0,-1,0,1,-15,-26,0,1,1757008295440864086
0,7.088813543,20250904135135456,None,-4,-1,1,-2,-3,0,-3,-6,1757008295455730438
0,7.08899641,20250904135135456,None,3,-3,-1,-1,1,-2,-3,-5,1757008295455917596
0,7.096258879,20250904135135463,None,2,-4,-6,-4,-3,59,9,-1,1757008295463193178
0,7.096439362,20250904135135463,None,0,-1,-2,-1,4,4,3,5,1757008295463414192
0,7.10389781,20250904135135471,None,-3,-1,-2,1,2,-2,-6,-4,1757008295470686197
0,7.104062319,20250904135135471,None,-2,1,-1,2,0,0,-1,-1,1757008295470854997
0,7.119076729,20250904135135486,None,-1,-1,-3,1,3,2,1,-1,1757008295485829591
0,7.119251728,20250904135135486,None,-5,-3,-2,-1,3,4,4,-1,1757008295486012220
0,7.126532793,20250904135135494,None,17,2,1,-4,-6,-2,1,2,1757008295493317365
0,7.126721859,20250904135135494,None,-7,0,0,6,3,-5,-11,2,1757008295493494510
0,7.134021997,20250904135135501,None,-5,1,-1,-5,-8,-4,-7,-3,1757008295500790596
0,7.13419342,20250904135135501,None,-5,2,-1,6,7,2,3,-2,1757008295500964641
0,7.14906764,20250904135135516,None,7,1,0,-5,-2,3,2,0,1757008295515827894
0,7.14925766,20250904135135516,None,-1,-1,-4,-1,-2,-1,2,-5,1757008295516017198
0,7.156778574,20250904135135524,None,0,0,-2,-3,2,-1,-1,-4,1757008295523531436
0,7.156935453,20250904135135524,None,2,3,5,2,-1,-7,5,6,1757008295523776054
0,7.164197445,20250904135135531,None,-5,-1,-2,2,-3,-3,-1,-8,1757008295530927658
0,7.16438508,20250904135135531,None,3,2,-1,-17,-6,-1,-4,-5,1757008295531120777
0,7.179276705,20250904135135546,None,-1,-1,-2,6,2,2,0,-1,1757008295545936346
0,7.179454803,20250904135135546,None,3,-1,-1,-4,2,-3,1,0,1757008295546143770
0,7.186857939,20250904135135554,None,1,3,-1,9,3,3,-1,0,1757008295553563594
0,7.187016249,20250904135135554,None,-3,-2,-1,0,-1,-2,-2,1,1757008295553782701
0,7.193876982,20250904135135561,None,-5,-4,-1,-3,-1,1,-1,0,1757008295560658693
0,7.194056273,20250904135135561,None,-3,0,-2,-6,5,17,1,-3,1757008295560832262
0,7.20966959,20250904135135577,None,5,1,1,1,-6,-12,9,2,1757008295576110601
0,7.209913254,20250904135135577,None,-18,-1,-3,0,-5,-8,-4,-6,1757008295576400756
0,7.216605425,20250904135135584,None,11,0,-1,-2,5,11,4,4,1757008295583369970
0,7.216789961,20250904135135584,None,-1,1,-1,-1,-4,-1,-4,0,1757008295583545923
0,7.223980427,20250904135135591,None,3,-2,1,-2,1,5,7,0,1757008295590805292
0,7.224166632,20250904135135591,None,-6,0,-1,-2,-3,-1,1,-3,1757008295591014862
0,7.239512444,20250904135135607,None,1,-1,-4,0,1,-5,2,4,1757008295606053829
0,7.239722252,20250904135135607,None,-1,-2,-2,0,0,0,2,0,1757008295606283664
0,7.24682498,20250904135135614,None,-6,-2,-1,6,2,5,-1,-10,1757008295613281488
0,7.24698329,20250904135135614,None,1,-1,0,-15,-8,-4,0,-8,1757008295613687276
0,7.253843069,20250904135135621,None,-2,-1,-1,11,-6,-4,6,8,1757008295620691537
0,7.253995419,20250904135135621,None,-3,-1,-1,-11,2,4,-6,1,1757008295620871067
0,7.268996239,20250904135135636,None,1,-1,2,-7,1,-13,0,-3,1757008295635753393
0,7.26916194,20250904135135636,None,-1,-2,0,4,1,-3,0,1,1757008295635937929
0,7.27615428,20250904135135643,None,4,2,-1,1,-1,6,6,1,1757008295643168210
0,7.276338816,20250904135135643,None,1,-3,-5,-2,1,1,-7,2,1757008295643379688
0,7.283507586,20250904135135650,None,0,-2,0,-1,-2,-1,0,-3,1757008295650729179
0,7.283598661,20250904135135651,None,0,-3,-2,-8,-4,2,-1,-1,1757008295650919437
0,7.298601866,20250904135135666,None,-10,-2,1,10,0,-2,1,-8,1757008295665715694
0,7.29869175,20250904135135666,None,1,-1,-1,-14,-2,0,3,2,1757008295665899991
0,7.305954695,20250904135135673,None,-2,1,1,3,8,4,2,0,1757008295673173904
0,7.306204319,20250904135135673,None,-2,-2,-1,-3,-11,-2,-2,-1,1757008295673385381
0,7.313682318,20250904135135681,None,-2,-2,-5,-1,-1,-5,-4,0,1757008295680702209
0,7.313788652,20250904135135681,None,-7,-1,-6,-5,-2,4,0,1,1757008295680886507
0,7.328478575,20250904135135695,None,3,-3,2,7,6,9,-3,1,1757008295695722579
0,7.328579664,20250904135135696,None,-2,-5,-1,-3,-4,-31,2,-3,1757008295695916891
0,7.33602953,20250904135135703,None,-2,-2,-2,-1,-1,1,-27,-2,1757008295703270912
0,7.336277485,20250904135135703,None,-3,-1,-1,16,4,6,4,3,1757008295703462362
0,7.343698502,20250904135135711,None,0,1,-4,-21,-6,0,-2,4,1757008295710710287
0,7.343792915,20250904135135711,None,-6,1,-3,1,1,-2,-4,-10,1757008295710891962
0,7.358669758,20250904135135726,None,3,2,1,5,6,8,1,-2,1757008295725673437
0,7.358787298,20250904135135726,None,-1,-1,1,3,1,8,0,1,1757008295725860595
0,7.366174459,20250904135135733,None,0,-1,3,2,-5,-8,-2,-7,1757008295733186483
0,7.366261244,20250904135135733,None,-3,-2,-1,-8,-5,-6,-4,9,1757008295733397960
0,7.37354207,20250904135135741,None,-8,-7,-1,5,6,-1,-1,-5,1757008295740736961
0,7.373615265,20250904135135741,None,9,-3,-2,-4,-1,2,-1,2,1757008295740901231
0,7.388738155,20250904135135756,None,-4,-4,-6,-4,2,52,3,-1,1757008295755706310
0,7.388879538,20250904135135756,None,-3,-1,-2,-7,-4,-5,-4,0,1757008295755878925
0,7.396330595,20250904135135763,None,1,1,1,0,-2,2,-7,-4,1757008295763282537
0,7.396446943,20250904135135763,None,-3,-1,-4,-4,-5,-2,-3,-1,1757008295763476848
0,7.403642178,20250904135135771,None,1,-1,-3,0,-1,-5,4,3,1757008295770712852
0,7.40370369,20250904135135771,None,-5,2,1,-3,0,6,0,-4,1757008295770892620
0,7.419258833,20250904135135786,None,-1,1,-1,3,-5,-3,0,1,1757008295785748243
0,7.419531107,20250904135135787,None,-3,-3,-2,-8,-3,-5,-5,-2,1757008295785932779
0,7.426107645,20250904135135793,None,9,6,5,0,1,2,-1,3,1757008295793068885
0,7.426245451,20250904135135793,None,-9,-2,-2,13,0,-5,4,-1,1757008295793243646
0,7.433505774,20250904135135800,None,-4,-1,-1,-17,-2,19,0,-8,1757008295800568819
0,7.433624744,20250904135135801,None,6,3,1,-4,2,-25,-1,4,1757008295800703525
0,7.448554516,20250904135135816,None,-3,-3,0,-1,-4,12,-3,0,1757008295815602540
0,7.448674679,20250904135135816,None,-4,0,0,4,1,-7,-2,-3,1757008295815739631
0,7.456046104,20250904135135823,None,-1,0,1,1,3,2,0,-2,1757008295823092222
0,7.456249952,20250904135135823,None,-20,1,0,-6,-6,3,1,-13,1757008295823250532
0,7.463531733,20250904135135831,None,3,1,0,-2,-1,-7,12,1,1757008295830570936
0,7.463833332,20250904135135831,None,-4,-4,1,-1,-1,-3,-7,5,1757008295830876111
0,7.478864193,20250904135135846,None,-1,1,3,2,2,1,0,-9,1757008295845772981
0,7.479002953,20250904135135846,None,-3,-1,-5,-3,-2,0,7,-3,1757008295845963716
0,7.494000196,20250904135135861,None,2,-2,-1,2,-6,5,-1,-2,1757008295860728263
0,7.494184017,20250904135135861,None,2,-2,-1,3,7,-4,-1,-3,1757008295860906839
0,7.501296759,20250904135135868,None,-2,3,-1,-14,-18,-3,-8,-5,1757008295868284463
0,7.501392841,20250904135135868,None,0,-3,-1,0,4,-1,8,4,1757008295868471622
0,7.508697271,20250904135135876,None,-2,0,1,0,-2,1,-5,-13,1757008295875736474
0,7.508780479,20250904135135876,None,0,-3,-3,1,-1,1,3,3,1757008295875915527
0,7.516505003,20250904135135883,None,-1,-1,0,3,-3,-5,-6,-4,1757008295883296728
0,7.51670742,20250904135135884,None,-1,-2,0,0,2,2,4,-2,1757008295883684158
0,7.531224251,20250904135135898,None,2,1,1,-3,0,4,-1,3,1757008295898205757
0,7.531406164,20250904135135898,None,-10,-1,-6,11,-4,-7,-3,-1,1757008295898408412
0,7.53872323,20250904135135906,None,-1,-5,-6,-14,-6,54,1,-3,1757008295905708551
0,7.539082527,20250904135135906,None,-1,-2,-3,-5,1,1,6,1,1757008295905889034
0,7.546169996,20250904135135913,None,0,1,-1,-1,-3,-2,-4,-3,1757008295913275241
0,7.54663682,20250904135135914,None,0,-3,0,5,5,4,1,1,1757008295913495302
0,7.561309814,20250904135135928,None,-3,-1,-1,1,-2,0,1,-4,1757008295928092718
0,7.561488867,20250904135135928,None,-2,-1,-2,1,2,5,-4,1,1757008295928262710
0,7.56864953,20250904135135936,None,1,4,1,-1,6,-18,-2,-4,1757008295935578107
0,7.568867207,20250904135135936,None,-9,-2,-5,2,-6,4,1,5,1757008295935728549
0,7.576066494,20250904135135943,None,4,-2,1,-1,1,-3,2,-4,1757008295943057060
0,7.576245785,20250904135135943,None,-2,0,-1,-9,-7,0,-8,-7,1757008295943177223
0,7.591063499,20250904135135958,None,0,1,-4,0,2,2,4,2,1757008295958054542
0,7.591237545,20250904135135958,None,-2,-3,-2,-6,-4,-3,2,-5,1757008295958175182
0,7.598636389,20250904135135966,None,1,2,2,4,5,1,7,5,1757008295965602636
0,7.598867416,20250904135135966,None,-10,-1,1,-5,1,-5,-24,-6,1757008295965750694
0,7.606016874,20250904135135973,None,10,-2,-3,-1,-3,-5,-5,0,1757008295973009347
0,7.606192827,20250904135135973,None,-1,-1,1,-2,-5,0,3,9,1757008295973111867
0,7.621241331,20250904135135988,None,-3,-1,-1,-4,3,2,-2,-7,1757008295988099336
0,7.621460199,20250904135135988,None,-3,0,-4,-1,-3,1,6,0,1757008295988250970
0,7.628701448,20250904135135996,None,-6,-2,-2,0,2,-3,-1,-9,1757008295995632410
0,7.62894249,20250904135135996,None,6,-2,-2,1,-6,-1,-3,-1,1757008295995766162
0,7.636356592,20250904135136003,None,-2,-5,-1,5,-8,-7,-1,0,1757008296003160476
0,7.636557579,20250904135136004,None,-4,-1,-1,-21,-6,-2,-9,4,1757008296003253221
0,7.651476145,20250904135136018,None,-4,1,0,1,3,3,-1,-5,1757008296018244981
0,7.651836395,20250904135136019,None,5,-3,1,0,2,1,1,-4,1757008296018394947
0,7.658542395,20250904135136026,None,-3,0,-1,1,1,-5,0,-4,1757008296025585651
0,7.658670902,20250904135136026,None,3,2,-1,0,4,3,3,2,1757008296025733232
0,7.666217089,20250904135136033,None,-2,-2,-2,-5,-8,-4,-1,-3,1757008296033170223
0,7.666345596,20250904135136033,None,-2,-1,2,3,3,-5,-11,-3,1757008296033333539
0,7.681244612,20250904135136048,None,-1,1,-2,-1,-6,-3,-3,-3,1757008296048149824
0,7.681430817,20250904135136048,None,2,2,-2,-2,1,36,4,3,1757008296048323154
0,7.688597679,20250904135136056,None,1,-1,2,13,-2,-36,2,2,1757008296055672407
0,7.688704968,20250904135136056,None,0,-1,-1,-17,-3,1,-3,-2,1757008296055800437
0,7.696123362,20250904135136063,None,1,1,-2,9,0,4,2,1,1757008296063166141
0,7.696265698,20250904135136063,None,-1,-2,0,-4,-2,2,0,2,1757008296063262701
0,7.711204052,20250904135136078,None,-2,-3,-3,-11,-5,0,-3,-2,1757008296078186035
0,7.711336613,20250904135136078,None,-7,-4,-2,-2,-3,-2,-3,-5,1757008296078362703
0,7.7186293599999996,20250904135136086,None,4,4,2,2,6,3,1,2,1757008296085669517
0,7.7187528610000005,20250904135136086,None,0,0,-1,-4,1,-2,-25,1,1757008296085807085
0,7.726130009,20250904135136093,None,-5,-4,0,12,7,2,-2,-1,1757008296093147993
