gt,time_elapsed,current_time,current_task,emg0,emg1,emg2,emg3,emg4,emg5,emg6,emg7,emg_timer_stamp
0,0.03330326,20250904135909764,None,-1,1,1,3,1,0,0,0,1757008749764383077
0,0.033463955,20250904135909764,None,-1,-2,-2,-2,-5,1,0,-5,1757008749764532804
0,0.04047966,20250904135909771,None,1,-4,-4,-2,-3,-3,0,-1,1757008749771726608
0,0.040618181,20250904135909772,None,0,-1,-2,3,-3,-5,-4,0,1757008749771814823
0,0.048294305,20250904135909779,None,-4,1,-4,2,-2,0,1,0,1757008749779442787
0,0.048482179,20250904135909779,None,-2,-2,-2,-18,-4,1,0,-2,1757008749779571533
0,0.063067197,20250904135909794,None,3,-1,3,1,-4,-2,-3,-2,1757008749794315576
0,0.063163518,20250904135909794,None,1,0,1,1,3,0,2,3,1757008749794436454
0,0.070874691,20250904135909802,None,-1,-2,-3,-3,3,-1,0,-7,1757008749801792860
0,0.071001768,20250904135909802,None,-4,0,0,4,-5,4,-1,2,1757008749801995277
0,0.078247547,20250904135909809,None,1,-2,1,-1,0,-2,-2,1,1757008749809439182
0,0.078336477,20250904135909809,None,1,1,2,2,1,5,-5,-2,1757008749809577941
0,0.093327045,20250904135909824,None,-2,-3,-1,-3,1,-6,0,0,1757008749824520111
0,0.093421936,20250904135909824,None,-1,-1,-4,0,-1,-2,3,2,1757008749824662446
0,0.101097583,20250904135909832,None,-3,0,-3,-4,-4,0,-2,-1,1757008749832345962
0,0.101279497,20250904135909832,None,-1,-4,0,-2,0,1,1,0,1757008749832562685
0,0.109015703,20250904135909840,None,-2,1,-3,-1,-1,4,0,-1,1757008749839813947
0,0.109239816,20250904135909840,None,-1,-1,1,2,2,-3,-1,2,1757008749840026140
0,0.124088049,20250904135909855,None,0,0,-3,-1,-4,0,-2,-1,1757008749854822397
0,0.124300003,20250904135909855,None,-1,-2,1,3,0,6,4,-1,1757008749855026960
0,0.131445407,20250904135909862,None,0,-3,0,-2,-1,-2,0,0,1757008749862148046
0,0.131658315,20250904135909863,None,-2,-3,-1,-1,1,2,-5,-3,1757008749862372159
0,0.139076232,20250904135909870,None,-1,1,0,3,3,0,0,-1,1757008749869623899
0,0.139336109,20250904135909870,None,-1,-4,1,-7,-14,-4,-1,-2,1757008749869802236
0,0.1536839,20250904135909885,None,3,2,0,0,-2,-2,4,3,1757008749884528636
0,0.15413475,20250904135909885,None,-1,0,-1,-2,3,-1,-1,0,1757008749884685277
0,0.161127805,20250904135909892,None,-1,0,-2,2,-1,4,4,-2,1757008749891937255
0,0.161332845,20250904135909892,None,1,-4,3,4,0,-7,-2,2,1757008749892112016
0,0.168521165,20250904135909900,None,0,-1,-2,0,0,-4,-2,1,1757008749899416685
0,0.168754339,20250904135909900,None,-2,-5,-2,1,3,3,0,-4,1757008749899534225
0,0.183578491,20250904135909915,None,-4,-2,-3,-6,-11,-6,-3,1,1757008749914574146
0,0.1837399,20250904135909915,None,-1,-1,-2,-2,1,-2,2,0,1757008749914767503
0,0.191449403,20250904135909922,None,1,-1,-2,0,2,6,-5,-1,1757008749922201871
0,0.191655397,20250904135909923,None,0,-4,-1,-1,-5,-4,3,-2,1757008749922612905
0,0.198580265,20250904135909930,None,-4,-3,-1,5,3,-3,1,-5,1757008749929392337
0,0.198825836,20250904135909930,None,0,-2,-1,-4,0,2,1,-2,1757008749929510354
0,0.213513612,20250904135909945,None,-2,1,-1,-16,-8,2,-3,1,1757008749944387674
0,0.21372652,20250904135909945,None,0,2,-3,-1,3,-2,-2,1,1757008749944502592
0,0.220927715,20250904135909952,None,2,-2,1,5,3,5,-1,-3,1757008749951822042
0,0.221087455,20250904135909952,None,-2,-2,-3,-2,3,-2,-6,-2,1757008749951928615
0,0.228548765,20250904135909960,None,-2,-1,-1,0,-2,3,0,-2,1757008749959551572
0,0.228707313,20250904135909960,None,5,-1,0,-3,0,-5,-3,1,1757008749959773302
0,0.243374586,20250904135909974,None,-3,-5,1,0,-3,-3,-2,-2,1757008749974445581
0,0.243577957,20250904135909975,None,-1,-1,0,1,-3,-3,-1,0,1757008749974608421
0,0.250622272,20250904135909982,None,0,1,1,-1,0,1,-2,-1,1757008749981854438
0,0.250938415,20250904135909982,None,-4,-2,-2,-4,-1,-2,0,-3,1757008749981967926
0,0.258178711,20250904135909989,None,-1,-4,-3,-3,3,2,-5,-4,1757008749989392995
0,0.258347988,20250904135909989,None,3,1,0,3,-1,-6,0,2,1757008749989501476
0,0.273530721,20250904135910005,None,-4,-1,-1,-1,1,1,-3,-2,1757008750004592180
0,0.273740768,20250904135910005,None,-1,-1,-3,0,0,-2,-1,3,1757008750004765748
0,0.280856609,20250904135910012,None,-2,-1,-1,-1,-3,-3,-5,-1,1757008750011927604
0,0.281041622,20250904135910012,None,-1,-1,-2,-4,2,4,3,-1,1757008750012079000
0,0.288262128,20250904135910019,None,-2,-2,-1,-3,-7,-11,-1,1,1757008750019423007
0,0.288431882,20250904135910019,None,-1,-3,1,-2,1,3,-3,-2,1757008750019579172
0,0.303389072,20250904135910034,None,-2,2,2,0,-1,-2,4,3,1757008750034490823
0,0.303571462,20250904135910035,None,0,0,0,-3,-5,3,-3,3,1757008750034625053
0,0.310696125,20250904135910042,None,1,0,-2,2,1,0,-2,-2,1757008750041852712
0,0.311137914,20250904135910042,None,-1,0,-1,-2,2,-1,-1,-2,1757008750041968822
0,0.318255186,20250904135910049,None,-5,1,-1,-3,-1,2,-2,0,1757008750049380540
0,0.318441867,20250904135910049,None,0,-1,-1,0,2,1,-2,5,1757008750049490928
0,0.333507776,20250904135910065,None,2,-2,-3,1,2,1,3,0,1757008750064615249
0,0.333694934,20250904135910065,None,2,-4,0,0,-2,-2,0,-5,1757008750064795017
0,0.341105461,20250904135910072,None,-3,3,-3,-3,-1,1,1,1,1757008750071927070
0,0.341365099,20250904135910072,None,0,-4,-4,2,-3,-4,-1,3,1757008750072104692
0,0.348316669,20250904135910079,None,-1,0,-2,-4,-6,1,-4,-1,1757008750079411983
0,0.348494052,20250904135910079,None,0,0,0,10,2,1,0,0,1757008750079551935
0,0.363307237,20250904135910094,None,-7,-5,-1,-11,1,-5,-7,-2,1757008750094405651
0,0.363748312,20250904135910095,None,2,0,-2,-6,-6,1,0,1,1757008750094558954
0,0.370695352,20250904135910102,None,3,1,0,1,-3,1,1,-4,1757008750101828336
0,0.370910167,20250904135910102,None,-1,-3,-2,4,1,-2,-3,1,1757008750101944923
0,0.378266334,20250904135910109,None,-2,0,-1,-1,4,-3,-2,0,1757008750109364509
0,0.378451109,20250904135910109,None,-2,1,-3,2,-4,-2,-3,-1,1757008750109498977
0,0.393424511,20250904135910124,None,0,-2,0,-2,-5,-3,-4,-1,1757008750124554634
0,0.393594503,20250904135910125,None,0,-4,-2,-2,-1,-3,1,0,1757008750124710798
0,0.400674104,20250904135910132,None,-1,0,-2,-2,-2,0,-3,2,1757008750131831407
0,0.401000738,20250904135910132,None,2,-4,-1,-1,0,-2,0,-3,1757008750131937503
0,0.408457279,20250904135910139,None,-3,2,0,1,-1,-3,0,1,1757008750139482021
0,0.408654451,20250904135910140,None,-3,-3,-2,-2,-3,-2,-1,0,1757008750139657258
0,0.423341512,20250904135910154,None,-2,2,-1,0,-4,0,0,3,1757008750154428958
0,0.423525571,20250904135910155,None,-5,-1,-4,0,-3,-5,-1,-8,1757008750154605150
0,0.43072009,20250904135910162,None,-2,-1,1,0,3,10,-1,3,1757008750161838531
0,0.430949926,20250904135910162,None,0,-1,2,0,-6,-7,2,3,1757008750161956548
0,0.438249588,20250904135910169,None,-1,1,0,1,0,-3,1,-4,1757008750169371843
0,0.438437461,20250904135910169,None,-3,-6,-1,-3,1,-1,-1,1,1757008750169495582
0,0.453329324,20250904135910184,None,-1,0,-1,3,1,1,-11,0,1757008750184444427
0,0.453513383,20250904135910185,None,-2,1,-1,-3,0,1,-2,3,1757008750184571504
0,0.460738658,20250904135910192,None,-7,0,-3,0,-4,-1,0,-8,1757008750191861867
0,0.461244344,20250904135910192,None,9,1,1,-3,0,2,-1,-3,1757008750191969633
0,0.468164205,20250904135910199,None,-2,-1,-1,-3,-1,-1,3,1,1757008750199343919
0,0.468333005,20250904135910199,None,-6,-3,-2,0,5,-2,-8,0,1757008750199472904
0,0.483288288,20250904135910214,None,0,1,0,2,-2,3,5,2,1757008750214371919
0,0.48348689,20250904135910214,None,-2,-2,-1,3,-2,-2,-5,-6,1757008750214500904
0,0.499026537,20250904135910230,None,0,0,-2,-1,0,1,-1,-2,1757008750230076789
0,0.499232292,20250904135910230,None,1,-2,-3,-1,1,-3,1,-2,1757008750230192184
0,0.499667882,20250904135910231,None,0,0,1,-1,0,1,0,-2,1757008750230856895
0,0.499932527,20250904135910231,None,-3,-4,1,8,-2,-6,-3,-1,1757008750230982542
0,0.513236999,20250904135910244,None,2,-1,-2,-20,-4,-1,-1,3,1757008750244380474
0,0.513420105,20250904135910244,None,0,-3,-1,1,0,3,2,-2,1757008750244486808
0,0.520909547,20250904135910252,None,0,0,-4,3,4,1,-3,1,1757008750251876354
0,0.521119117,20250904135910252,None,-3,-3,0,2,3,0,-1,-1,1757008750251985311
0,0.535976409,20250904135910267,None,0,-5,1,3,-1,1,-3,-2,1757008750266948461
0,0.536186218,20250904135910267,None,0,2,-5,0,-3,0,3,0,1757008750267071723
0,0.543414354,20250904135910274,None,-7,-1,-1,0,-1,-1,1,-2,1757008750274428844
0,0.543602943,20250904135910275,None,6,1,0,4,1,-6,2,0,1757008750274545669
0,0.551161766,20250904135910282,None,-1,1,-1,-3,-5,7,-1,-1,1757008750281911373
0,0.551429748,20250904135910282,None,-3,-1,-2,-3,1,-4,3,1,1757008750282019138
0,0.566314458,20250904135910297,None,-1,-6,-3,0,-1,-7,-5,2,1757008750297019720
0,0.566492319,20250904135910297,None,0,2,-4,-2,0,-1,-1,1,1757008750297208309
0,0.574240684,20250904135910305,None,4,0,-1,0,-3,-2,1,-2,1757008750304751157
0,0.574493169,20250904135910305,None,-3,-3,-2,-1,0,1,-1,-3,1757008750304940223
0,0.581358194,20250904135910312,None,0,0,-3,-1,-6,3,1,0,1757008750312204837
0,0.581546068,20250904135910313,None,-1,2,-2,1,1,-2,1,2,1757008750312416076
0,0.596483469,20250904135910327,None,-3,-3,-5,0,5,-1,2,-1,1757008750327262878
0,0.596663951,20250904135910328,None,-2,2,2,0,-1,-4,-6,-4,1757008750327444314
0,0.603854656,20250904135910335,None,-1,-3,2,-5,-2,0,3,-3,1757008750334726095
0,0.604038477,20250904135910335,None,1,2,1,-3,0,0,1,2,1757008750334908246
0,0.611489057,20250904135910342,None,-1,-1,2,-1,2,-3,-1,-5,1757008750342285156
0,0.611660718,20250904135910343,None,-1,-2,-3,1,-1,-3,0,-2,1757008750342462778
0,0.626300096,20250904135910357,None,1,1,-2,-2,-1,3,-4,-2,1757008750357133865
0,0.626510858,20250904135910357,None,0,-3,1,-1,2,-4,2,2,1757008750357352733
0,0.634005308,20250904135910365,None,-3,0,-2,-4,-4,-8,-3,-1,1757008750364741086
0,0.634180545,20250904135910365,None,2,-2,1,0,-1,1,-4,4,1757008750364923477
0,0.641307115,20250904135910372,None,-1,1,-3,-1,2,2,-4,-4,1757008750372138977
0,0.64147067,20250904135910372,None,-2,-2,-1,-1,1,2,-3,-3,1757008750372312545
0,0.656296491,20250904135910387,None,-1,-4,-3,-2,2,0,-3,-5,1757008750387172937
0,0.65647149,20250904135910387,None,0,-2,-1,-3,-1,0,5,-3,1757008750387376070
0,0.664003849,20250904135910395,None,0,-1,-3,-2,-1,-3,-4,-1,1757008750394726037
0,0.664185524,20250904135910395,None,-2,1,1,8,0,0,1,-1,1757008750394909858
0,0.671390056,20250904135910402,None,-3,-3,-4,-22,-9,-3,-4,-3,1757008750402275562
0,0.67155528,20250904135910403,None,-3,-3,-2,0,1,-2,-1,0,1757008750402452468
0,0.687041759,20250904135910418,None,2,-1,-3,4,-1,1,0,2,1757008750417733430
0,0.68726015,20250904135910418,None,0,-1,1,5,1,2,0,-5,1757008750417926549
0,0.693983554,20250904135910425,None,-2,-2,0,-2,-2,-3,-1,-7,1757008750424729108
0,0.694160461,20250904135910425,None,-3,-2,3,2,1,3,5,0,1757008750424916982
0,0.701804161,20250904135910433,None,1,0,1,0,-4,-1,-4,3,1757008750432446479
0,0.701990842,20250904135910433,None,-1,-1,0,2,0,0,1,2,1757008750432645082
0,0.716791629,20250904135910448,None,1,-2,-2,-4,3,2,-4,-2,1757008750447419643
0,0.716995239,20250904135910448,None,-1,0,-3,-1,0,-4,-3,-2,1757008750447630643
0,0.723694086,20250904135910455,None,-3,3,0,2,-1,-3,-2,-1,1757008750454656362
0,0.723836422,20250904135910455,None,-1,1,2,2,1,3,-1,-1,1757008750454813241
0,0.731665849,20250904135910463,None,-3,-2,-2,-3,-7,-5,1,-3,1757008750462430477
0,0.731895685,20250904135910463,None,-1,-2,-1,-1,-2,-5,-10,2,1757008750462627410
0,0.746600151,20250904135910478,None,0,-2,-1,-3,-2,2,1,-3,1757008750477330684
0,0.746793508,20250904135910478,None,-5,3,-3,3,0,1,1,-1,1757008750477522611
0,0.753798961,20250904135910485,None,2,0,-1,-2,5,-4,0,1,1757008750484682559
0,0.753965139,20250904135910485,None,1,0,-2,1,1,4,2,5,1757008750484862804
0,0.761429071,20250904135910492,None,-2,1,0,0,1,-2,2,-3,1757008750492197990
0,0.761592865,20250904135910493,None,-1,1,-1,2,-1,1,-2,-4,1757008750492400884
0,0.776610374,20250904135910508,None,0,-1,-4,4,-1,4,1,-1,1757008750507315874
0,0.7768085,20250904135910508,None,-2,-1,-1,-4,-2,-3,-1,-4,1757008750507488489
0,0.783920526,20250904135910515,None,-1,1,0,2,-1,-3,3,0,1757008750514683485
0,0.784088611,20250904135910515,None,0,-4,-1,-4,0,-1,-4,1,1757008750514859437
0,0.791275739,20250904135910522,None,-1,0,0,-2,1,0,-1,-3,1757008750522056341
0,0.79146552,20250904135910522,None,3,-1,-4,0,-3,-6,-2,0,1757008750522179365
0,0.806224823,20250904135910537,None,1,0,0,0,-1,0,-1,1,1757008750537009477
0,0.806401252,20250904135910537,None,-3,-1,-1,-3,-1,2,-3,3,1757008750537139177
0,0.813633918,20250904135910545,None,-1,-1,-1,3,-3,-7,0,-3,1757008750544495820
0,0.813844442,20250904135910545,None,0,1,0,0,-1,-6,-3,-3,1757008750544609546
0,0.821196794,20250904135910552,None,2,1,-2,-2,0,-1,0,-1,1757008750552009820
0,0.821374654,20250904135910552,None,-1,1,-1,0,1,4,0,2,1757008750552115917
0,0.836293935,20250904135910567,None,-1,-2,1,2,2,-3,-4,-1,1757008750567092895
0,0.83648324,20250904135910567,None,-1,-1,-1,-2,-7,0,-2,-2,1757008750567245244
0,0.843839883,20250904135910575,None,-1,3,2,9,1,3,0,0,1757008750574723482
0,0.843992233,20250904135910575,None,-3,-2,-2,-14,-2,-1,-1,1,1757008750574899673
0,0.851475715,20250904135910582,None,1,-4,-1,-3,-3,-3,-5,0,1757008750582327604
0,0.85165286,20250904135910583,None,-2,-1,1,4,4,2,-1,-1,1757008750582529067
0,0.866560459,20250904135910598,None,1,-6,-1,0,5,-1,3,-2,1757008750597274780
0,0.866813898,20250904135910598,None,0,-2,1,-1,-6,-2,-2,3,1757008750597469329
0,0.873829603,20250904135910605,None,0,-4,-4,0,6,2,-1,-8,1757008750604719161
0,0.873989582,20250904135910605,None,-4,-3,-3,-3,-1,-2,4,2,1757008750604894876
0,0.881385564,20250904135910612,None,-1,0,2,1,-4,-3,0,-2,1757008750612139701
0,0.881547689,20250904135910613,None,3,2,0,2,-1,-1,1,-2,1757008750612350463
0,0.896327495,20250904135910627,None,0,-2,1,2,3,0,-2,0,1757008750627200841
0,0.89650917,20250904135910627,None,-4,-5,1,-3,-14,-7,-7,-3,1757008750627410173
0,0.903832435,20250904135910635,None,-1,0,-2,2,0,2,0,2,1757008750634706974
0,0.903982162,20250904135910635,None,-4,0,-1,-7,-7,0,0,3,1757008750634888410
0,0.911847353,20250904135910643,None,-2,-3,-1,1,2,-3,1,-5,1757008750642457246
0,0.912058591,20250904135910643,None,0,-1,-1,-3,2,-2,0,-8,1757008750642668962
0,0.926537275,20250904135910658,None,3,0,-1,-2,1,7,1,-1,1757008750657311201
0,0.926717281,20250904135910658,None,0,1,-1,0,-1,-6,-3,2,1757008750657498598
0,0.934021473,20250904135910665,None,0,4,-3,-2,-3,-7,0,0,1757008750664769887
0,0.93418312,20250904135910665,None,1,1,-4,-2,-1,9,1,1,1757008750664949178
0,0.941567421,20250904135910673,None,-3,-2,-4,0,1,-7,-3,0,1757008750672315120
0,0.941744566,20250904135910673,None,4,-1,-1,1,0,2,0,-1,1757008750672489643
0,0.956683874,20250904135910688,None,-4,-2,0,-3,-5,1,-2,-1,1757008750687418937
0,0.95689845,20250904135910688,None,-2,-2,-2,3,-1,0,-5,6,1757008750687620639
0,0.9638834,20250904135910695,None,0,1,0,-4,-2,0,0,-5,1757008750694759607
0,0.96403408,20250904135910695,None,0,3,0,1,-2,1,-1,-3,1757008750694938898
0,0.971236467,20250904135910702,None,-1,-2,1,-3,0,1,4,1,1757008750702206611
0,0.971392154,20250904135910702,None,-1,-3,-1,-3,-2,0,-4,0,1757008750702398777
0,0.986584425,20250904135910718,None,3,1,0,0,-1,3,-1,0,1757008750717333078
0,0.986749649,20250904135910718,None,1,3,-1,2,-1,0,-1,-1,1757008750717509746
0,0.993991613,20250904135910725,None,-1,1,-1,1,-3,-1,-2,-1,1757008750724782943
0,0.994152307,20250904135910725,None,1,-3,-1,-2,2,6,-1,3,1757008750724955558
0,1.001466274,20250904135910732,None,-3,-1,-3,0,1,-4,-1,-2,1757008750732290506
0,1.001626968,20250904135910733,None,0,-5,-1,1,3,-7,-2,-1,1757008750732460260
0,1.01623106,20250904135910747,None,-3,-3,-3,3,-4,2,-2,1,1757008750747187376
0,1.016392946,20250904135910747,None,3,0,0,1,1,0,-2,-2,1757008750747413158
0,1.023851633,20250904135910755,None,0,-2,0,-15,-3,1,-1,0,1757008750754788637
0,1.024022579,20250904135910755,None,-4,-1,-2,1,-4,-3,-4,-1,1757008750754976034
0,1.031831979,20250904135910763,None,-3,-1,-1,1,0,0,0,-2,1757008750762346982
0,1.032020807,20250904135910763,None,-1,-2,-1,2,2,2,0,3,1757008750762634754
0,1.046294927,20250904135910777,None,-1,-2,-1,5,0,-6,4,2,1757008750777121067
0,1.046474218,20250904135910777,None,5,-1,-2,0,0,1,-2,-5,1757008750777256011
0,1.053653001,20250904135910785,None,2,0,0,0,2,0,0,3,1757008750784543037
0,1.053852081,20250904135910785,None,-2,1,2,0,-2,0,-7,-3,1757008750784638166
0,1.061291456,20250904135910792,None,-3,-1,-2,-2,0,-2,0,-3,1757008750792074680
0,1.061469554,20250904135910792,None,1,2,-2,-7,-9,1,6,2,1757008750792188167
0,1.076306104,20250904135910807,None,-3,1,-4,1,-1,-4,1,3,1757008750807090520
0,1.076498508,20250904135910807,None,0,-3,-1,1,0,3,2,-1,1757008750807254791
0,1.083614111,20250904135910815,None,-3,-3,0,1,-4,-3,0,-1,1757008750814496994
0,1.08381319,20250904135910815,None,2,-1,1,0,0,0,-3,1,1757008750814599514
0,1.091186046,20250904135910822,None,-3,-5,-1,-2,2,-1,-1,-4,1757008750822042465
0,1.0913558,20250904135910822,None,1,-3,1,-3,-6,-3,3,3,1757008750822177648
0,1.105891227,20250904135910837,None,0,0,0,1,4,3,-1,-2,1757008750836916685
0,1.106019258,20250904135910837,None,-2,0,0,-1,-2,2,0,0,1757008750837040662
0,1.113532543,20250904135910845,None,2,-3,1,1,0,-1,-1,-1,1757008750844592809
0,1.113698482,20250904135910845,None,1,-1,-2,-2,0,-3,-3,-3,1757008750844757795
0,1.121013164,20250904135910852,None,-2,-4,-1,-4,-3,1,1,-2,1757008750851968288
0,1.121206283,20250904135910852,None,0,-5,1,1,1,4,2,2,1757008750852100610
0,1.136032819,20250904135910867,None,-1,-2,-3,0,-1,-5,-4,5,1757008750866974115
0,1.136229038,20250904135910867,None,-3,-1,0,1,-1,0,-2,-4,1757008750867091655
0,1.143587112,20250904135910875,None,-5,3,-3,2,1,2,-1,0,1757008750874586582
0,1.143749475,20250904135910875,None,2,1,-1,1,-1,1,-3,-1,1757008750874688625
0,1.151120424,20250904135910882,None,0,1,-1,-1,-1,1,1,-1,1757008750882130146
0,1.151296377,20250904135910882,None,-1,-3,0,1,0,0,0,-5,1757008750882245063
0,1.166284799,20250904135910897,None,0,1,2,-2,-4,-2,1,-1,1757008750897196531
0,1.166470527,20250904135910897,None,-5,-2,0,-2,1,2,1,2,1757008750897391557
0,1.173579931,20250904135910905,None,-2,-3,3,1,0,-4,0,-2,1757008750904598712
0,1.173798561,20250904135910905,None,-4,0,-2,-2,1,0,-3,-1,1757008750904715538
0,1.181072473,20250904135910912,None,3,-1,-3,-1,-4,-1,-5,0,1757008750912083148
0,1.181249618,20250904135910912,None,-2,-2,-1,1,0,-2,-1,0,1757008750912189722
0,1.196072816,20250904135910927,None,0,-4,-2,-3,-1,5,-1,-3,1757008750927076339
0,1.196284532,20250904135910927,None,-3,-2,-1,0,2,-5,-3,-3,1757008750927200555
0,1.203576326,20250904135910935,None,2,3,-1,3,1,-2,-7,0,1757008750934615135
0,1.203753709,20250904135910935,None,-2,0,1,-20,-7,1,-2,-3,1757008750934714794
0,1.211127519,20250904135910942,None,0,-3,2,1,0,0,2,1,1757008750942137002
0,1.211302518,20250904135910942,None,0,2,0,3,4,2,-3,0,1757008750942273616
0,1.226230859,20250904135910957,None,-2,-1,-4,3,-1,-1,2,-10,1757008750957155466
0,1.226408243,20250904135910957,None,-3,-4,1,-3,5,-2,1,-1,1757008750957257509
0,1.233569145,20250904135910965,None,-4,-1,0,-1,-1,-1,-2,-1,1757008750964559555
0,1.233800172,20250904135910965,None,0,-3,1,-1,-4,-3,-1,1,1757008750964659690
0,1.241098404,20250904135910972,None,0,-2,2,0,-3,0,-1,-1,1757008750972090721
0,1.241333484,20250904135910972,None,1,-2,0,5,0,-1,2,-1,1757008750972195148
0,1.256119728,20250904135910987,None,-1,4,0,-1,-4,-4,-1,-1,1757008750987107276
0,1.256293296,20250904135910987,None,-3,0,-1,-1,4,2,-3,2,1757008750987277746
0,1.263549566,20250904135910995,None,0,-1,-3,0,-5,-3,-4,-3,1757008750994582176
0,1.26373434,20250904135910995,None,1,-2,0,1,4,-4,-5,-3,1757008750994681835
0,1.270997285,20250904135911002,None,0,-1,-5,-1,0,0,4,1,1757008751001998662
0,1.271172523,20250904135911002,None,-5,-1,-4,0,1,3,1,-3,1757008751002120256
0,1.285980463,20250904135911017,None,3,-2,1,0,1,3,1,-1,1757008751016992092
0,1.286162614,20250904135911017,None,-4,-1,4,-8,-1,0,2,-3,1757008751017102003
0,1.293316602,20250904135911024,None,0,-5,0,-1,-1,-3,-5,2,1757008751024395465
0,1.293466806,20250904135911024,None,-2,0,3,0,-2,1,-4,0,1757008751024494171
0,1.30097413,20250904135911032,None,1,0,0,-1,-1,2,-1,0,1757008751031944036
0,1.301143884,20250904135911032,None,-1,-3,1,1,-1,1,1,4,1757008751032056570
0,1.316079139,20250904135911047,None,-2,-1,-3,-1,-2,-7,-4,-6,1757008751047010421
0,1.3162586680000001,20250904135911047,None,3,3,2,1,3,5,5,3,1757008751047136306
0,1.3235123149999999,20250904135911055,None,-5,-3,-1,-2,-3,3,-2,-4,1757008751054396152
0,1.323676586,20250904135911055,None,-1,-1,-3,2,-2,-2,-3,0,1757008751054491281
0,1.331222057,20250904135911062,None,0,-3,1,0,-1,-4,1,2,1757008751062002182
0,1.3314363949999999,20250904135911062,None,-2,4,0,-4,0,2,0,2,1757008751062116622
0,1.346292972,20250904135911077,None,0,0,-4,2,-4,-2,2,0,1757008751077015876
0,1.34648633,20250904135911077,None,1,-3,-3,-1,-3,-4,4,3,1757008751077128171
0,1.353607416,20250904135911085,None,-3,1,-2,-1,1,0,-2,-3,1757008751084456443
0,1.353798151,20250904135911085,None,1,1,-2,-1,-5,-1,-1,-1,1757008751084561824
0,1.361097097,20250904135911092,None,-2,-3,-4,0,1,1,-2,-2,1757008751091954469
0,1.3612866399999999,20250904135911092,None,0,-1,0,-4,0,1,0,3,1757008751092057228
0,1.376077413,20250904135911107,None,-1,3,0,-4,-2,-1,5,-5,1757008751106966257
0,1.376260042,20250904135911107,None,-3,0,-3,0,-1,-1,-3,1,1757008751107123851
0,1.383558034,20250904135911115,None,0,-1,-2,-1,0,-3,2,1,1757008751114434480
0,1.383723497,20250904135911115,None,1,1,0,5,0,-3,3,0,1757008751114527225
0,1.3987846369999999,20250904135911130,None,2,-3,-3,-18,-6,-1,-2,-2,1757008751129563808
0,1.398966074,20250904135911130,None,2,0,-3,0,-1,4,-2,1,1757008751129695177
0,1.406168222,20250904135911137,None,-1,-1,-1,-2,-11,-3,-3,-5,1757008751136972188
0,1.406347274,20250904135911137,None,-1,-3,1,5,1,-1,0,1,1757008751137071847
0,1.413684129,20250904135911145,None,0,-3,1,-1,6,3,2,2,1757008751144510507
0,1.413896322,20250904135911145,None,-3,-1,-2,-3,-3,-4,-1,-4,1757008751144620895
0,1.421346426,20250904135911152,None,-1,0,0,1,4,0,-1,-2,1757008751152177810
0,1.4215140339999999,20250904135911152,None,3,1,1,1,-4,-1,0,-1,1757008751152395725
0,1.436270237,20250904135911167,None,-1,0,0,0,0,2,0,-1,1757008751167191028
0,1.43645215,20250904135911167,None,2,0,-1,-1,5,3,1,1,1757008751167408466
0,1.443806171,20250904135911175,None,-3,1,-3,-2,-5,-3,2,-1,1757008751174749135
0,1.443982839,20250904135911175,None,1,-3,-1,-3,-3,2,-1,0,1757008751174932718
0,1.451417923,20250904135911182,None,-3,0,-5,-1,-2,0,-4,0,1757008751182293176
0,1.4516422740000001,20250904135911183,None,-3,-3,-3,2,2,0,0,0,1757008751182747125
0,1.465883016,20250904135911197,None,-4,0,0,-1,-3,-4,-1,-3,1757008751196946620
0,1.466007471,20250904135911197,None,1,2,2,-1,1,1,5,0,1757008751197068691
0,1.473322868,20250904135911204,None,-3,-1,-1,-5,-2,-3,-1,-4,1757008751204476356
0,1.473498344,20250904135911204,None,0,-1,0,2,2,2,-1,4,1757008751204677820
0,1.488712072,20250904135911220,None,0,1,-2,-1,-3,-2,1,-4,1757008751219664812
0,1.488940954,20250904135911220,None,-1,0,-1,-4,4,3,-2,-3,1757008751219857931
0,1.495974063,20250904135911227,None,-1,-3,1,-3,-3,-7,-2,-2,1757008751227170467
0,1.496063232,20250904135911227,None,0,1,-1,2,-2,0,2,-1,1757008751227385282
0,1.503546714,20250904135911235,None,4,-2,-2,-1,-3,1,-1,-4,1757008751234757423
0,1.503657341,20250904135911235,None,1,-1,-4,-1,-2,-1,0,-2,1757008751234957218
0,1.51864767,20250904135911250,None,1,0,-1,-3,0,-1,-3,1,1757008751249691963
0,1.518854856,20250904135911250,None,-2,3,1,-2,-3,-2,-5,3,1757008751249876022
0,1.52615261,20250904135911257,None,-2,1,2,4,-2,1,-8,-6,1757008751257133722
0,1.526296377,20250904135911257,None,0,0,-3,-1,4,2,6,1,1757008751257333755
0,1.533756256,20250904135911265,None,-3,-3,-1,-2,-6,2,3,-1,1757008751264693260
0,1.533972024,20250904135911265,None,-3,-1,3,2,-3,0,-4,1,1757008751264885663
0,1.5486693379999998,20250904135911280,None,1,-3,-3,-5,-2,-1,-5,3,1757008751279643535
0,1.548878669,20250904135911280,None,-1,1,1,8,0,1,0,-5,1757008751279820919
0,1.55617547,20250904135911287,None,2,2,-4,-16,-6,-3,-3,2,1757008751287160158
0,1.5563533299999999,20250904135911287,None,1,-2,3,2,4,2,3,0,1757008751287369489
0,1.563663482,20250904135911295,None,-3,0,0,-7,-12,1,1,5,1757008751294641971
0,1.563878536,20250904135911295,None,0,-1,-2,2,0,-6,-2,-6,1757008751294830560
0,1.578847646,20250904135911310,None,-4,0,0,2,-5,-2,-3,-3,1757008751309750795
0,1.579046487,20250904135911310,None,0,-4,1,1,3,0,-1,-1,1757008751309952974
0,1.586285114,20250904135911317,None,-4,3,-1,2,-1,0,-2,0,1757008751317216157
0,1.586459875,20250904135911317,None,2,-1,2,-5,-2,1,0,1,1757008751317433834
0,1.593841791,20250904135911325,None,-2,-2,0,2,-4,-3,1,-1,1757008751324770212
0,1.5940206049999999,20250904135911325,None,-5,2,0,-2,-3,9,-1,-5,1757008751324959039
0,1.608753442,20250904135911340,None,-2,-3,-5,-3,-3,-10,1,1,1757008751339712619
0,1.608995437,20250904135911340,None,-3,-1,-1,-3,-10,-8,-3,-2,1757008751339919328
0,1.616547584,20250904135911348,None,1,1,1,2,1,-1,2,0,1757008751347264051
0,1.616730451,20250904135911348,None,0,-1,-1,-2,-1,-1,1,1,1757008751347463846
0,1.624239921,20250904135911355,None,-1,0,3,0,-1,-1,-2,-2,1757008751354784727
0,1.6244468680000002,20250904135911355,None,1,0,0,2,4,3,1,1,1757008751354997873
0,1.6393518440000001,20250904135911370,None,1,-1,-3,-3,-1,0,-1,1,1757008751369853019
0,1.639624595,20250904135911371,None,-4,-1,-1,-3,-1,-3,-2,-4,1757008751370049238
0,1.6462829110000001,20250904135911377,None,-5,-3,1,2,3,-6,-1,-1,1757008751377140283
0,1.646459817,20250904135911377,None,-3,-1,-1,-3,1,1,1,4,1757008751377362966
0,1.6540219779999998,20250904135911385,None,-2,-3,-1,1,3,2,-1,-4,1757008751384731531
0,1.6542546740000001,20250904135911385,None,0,0,-2,0,-4,-7,-2,3,1757008751384932756
0,1.6687524310000001,20250904135911400,None,0,-1,1,-1,-2,-6,-1,1,1757008751399620294
0,1.6689891810000002,20250904135911400,None,-1,-1,-2,-4,-4,-1,-6,-3,1757008751399807929
0,1.676016092,20250904135911407,None,-2,-4,-3,-4,-4,2,-3,6,1757008751406955480
0,1.67621541,20250904135911407,None,2,-1,-1,2,5,0,-1,-7,1757008751407091856
0,1.683382749,20250904135911414,None,0,0,0,2,0,-2,1,-4,1757008751414442300
0,1.683549881,20250904135911415,None,0,-2,-1,-3,-6,0,-1,2,1757008751414541482
0,1.698539257,20250904135911430,None,-4,-3,-1,-1,-1,-1,-2,-2,1757008751429527044
0,1.698737621,20250904135911430,None,1,-2,-1,0,-2,-8,-5,-4,1757008751429685592
0,1.705845117,20250904135911437,None,-3,-3,-3,-1,-3,0,4,4,1757008751436974763
0,1.706047535,20250904135911437,None,0,-3,4,0,-3,2,0,-2,1757008751437078475
0,1.713405609,20250904135911444,None,1,-1,0,1,6,0,-2,-2,1757008751444473028
0,1.713591098,20250904135911445,None,2,0,-2,-2,-9,-4,-2,1,1757008751444573879
0,1.729211092,20250904135911460,None,-1,-3,0,0,1,1,-2,2,1757008751459851503
0,1.729434967,20250904135911460,None,-4,-2,-3,-4,-4,1,6,-3,1757008751460040330
0,1.7365591519999999,20250904135911468,None,1,-2,-3,-1,-5,-4,-3,1,1757008751467178821
0,1.736742734,20250904135911468,None,-2,-1,-3,8,4,2,0,0,1757008751467419624
0,1.744166135,20250904135911475,None,1,-1,1,-17,0,-3,1,-7,1757008751474840164
0,1.7443645,20250904135911475,None,0,-1,2,-4,2,0,-2,-2,1757008751475048303
0,1.759175062,20250904135911490,None,2,-1,-5,1,-1,1,-2,-5,1757008751489893198
0,1.759567976,20250904135911491,None,3,-1,0,3,-3,-3,1,-2,1757008751490092992
0,1.766444444,20250904135911497,None,-3,0,-4,2,-1,-4,1,-1,1757008751497253656
0,1.766612291,20250904135911498,None,0,-1,2,-5,-1,2,-2,-1,1757008751497437477
0,1.7736093990000001,20250904135911505,None,0,-1,2,0,1,3,1,1,1757008751504562616
0,1.773774623,20250904135911505,None,-2,-1,-1,0,1,0,-4,0,1757008751504728078
0,1.788503885,20250904135911519,None,1,2,0,-2,-8,-2,-1,-1,1757008751519547700
0,1.7886209480000002,20250904135911520,None,-2,-2,0,-1,-1,0,-2,2,1757008751519687414
0,1.7960186,20250904135911527,None,1,0,0,-3,-5,8,0,-3,1757008751527034282
0,1.796165943,20250904135911527,None,1,-1,-2,0,2,-9,1,-3,1757008751527170658
0,1.8033466329999999,20250904135911534,None,-5,0,-1,-4,-4,-11,-3,0,1757008751534484624
0,1.803433179,20250904135911534,None,1,3,1,-1,-2,-1,-3,2,1757008751534599065
0,1.818527937,20250904135911550,None,-4,-2,0,0,1,2,1,-1,1757008751549569845
0,1.818640947,20250904135911550,None,6,0,-1,0,-1,1,-1,-1,1757008751549695491
0,1.826252698,20250904135911557,None,-4,-2,2,-4,0,3,-3,1,1757008751557336330
0,1.826356649,20250904135911557,None,-3,-3,1,0,0,-5,1,-5,1757008751557540655
0,1.833652973,20250904135911565,None,-1,-2,-4,-1,1,0,3,1,1757008751564759969
0,1.833795785,20250904135911565,None,-2,-4,-1,0,1,1,-2,-4,1757008751564940690
0,1.848685264,20250904135911580,None,0,-2,-1,-1,0,0,-3,-1,1757008751579737663
0,1.8488156789999999,20250904135911580,None,-5,-3,-1,1,-1,-1,-2,-4,1757008751579946041
0,1.856574773,20250904135911588,None,-1,-2,0,-3,-5,-2,-3,-1,1757008751587318420
0,1.856828928,20250904135911588,None,2,0,1,0,-2,-2,-1,-2,1757008751587525606
0,1.864089965,20250904135911595,None,1,0,-3,0,-3,-4,-1,0,1757008751594837665
0,1.864274978,20250904135911595,None,0,0,-2,-3,-2,2,-1,-3,1757008751595032691
0,1.888011455,20250904135911619,None,-1,-1,-2,0,1,1,3,1,1757008751618031501
0,1.888245105,20250904135911619,None,-1,-1,0,0,-5,-6,0,-4,1757008751618293762
0,1.8883481020000001,20250904135911619,None,0,1,-3,2,5,4,-2,-4,1757008751619390487
0,1.8884196279999999,20250904135911619,None,-1,-1,-2,0,0,-3,-4,-4,1757008751619547843
0,1.894067287,20250904135911625,None,-2,-3,-1,0,-1,-4,-2,0,1757008751624771833
0,1.8942286959999999,20250904135911625,None,0,-1,-2,0,6,0,-2,0,1757008751624972105
0,1.908742189,20250904135911640,None,-2,0,2,-3,-12,-2,0,-3,1757008751639738321
0,1.908874273,20250904135911640,None,-1,-1,0,0,-2,0,2,4,1757008751639885902
0,1.916374921,20250904135911647,None,-1,0,-2,-3,-1,-2,-1,1,1757008751647221565
0,1.91655159,20250904135911648,None,0,-4,0,2,4,-1,5,-6,1757008751647442102
0,1.923668384,20250904135911655,None,0,-4,-4,-1,1,0,-3,-2,1757008751654636859
0,1.923868894,20250904135911655,None,-1,0,-1,0,-4,0,1,0,1757008751654803037
0,1.9388463489999999,20250904135911670,None,-2,-4,0,-1,-3,-1,-1,-2,1757008751669732332
0,1.939203262,20250904135911670,None,-2,-2,-4,8,1,1,0,1,1757008751669933557
0,1.9458827969999999,20250904135911677,None,-2,-3,-2,-13,-4,-1,0,0,1757008751677085638
0,1.945995807,20250904135911677,None,2,1,1,-3,1,-1,1,-4,1757008751677305459
0,1.953529834,20250904135911685,None,1,4,1,-2,-10,-5,-2,-1,1757008751684788703
0,1.9536499969999999,20250904135911685,None,-1,1,-1,2,2,-1,-3,1,1757008751684973478
0,1.968593359,20250904135911700,None,2,0,-1,0,0,0,1,0,1757008751699813842
0,1.9687094680000001,20250904135911700,None,1,-1,0,1,-1,-1,-3,0,1757008751700004816
0,1.976179838,20250904135911707,None,-3,-2,-1,1,1,-3,-5,-5,1757008751707117080
0,1.976368904,20250904135911707,None,-3,-4,-1,-2,0,-4,0,0,1757008751707264184
0,1.983434438,20250904135911714,None,-1,-4,-1,2,4,7,0,-2,1757008751714494466
0,1.983596086,20250904135911715,None,-1,-2,-1,0,-6,-5,-4,1,1757008751714597463
0,1.9985246650000001,20250904135911730,None,-4,-1,0,-1,1,-4,0,-2,1757008751729527950
0,1.998705148,20250904135911730,None,0,-1,-2,1,0,-3,0,4,1757008751729678153
0,2.005982875,20250904135911737,None,-2,-2,-1,-3,1,-1,0,-9,1757008751736968994
0,2.006173849,20250904135911737,None,-3,-4,-2,-5,-3,-1,0,1,1757008751737086057
0,2.013414383,20250904135911744,None,-2,-1,0,-1,3,6,-1,-3,1757008751744465589
0,2.01358509,20250904135911745,None,-1,1,-2,-1,-2,2,-1,-1,1757008751744575500
0,2.028592825,20250904135911760,None,-1,0,-2,-2,-1,-5,-4,-4,1757008751759563446
0,2.028798341,20250904135911760,None,0,-3,-1,2,3,0,1,0,1757008751759704351
0,2.036020994,20250904135911767,None,-2,-2,0,1,0,0,-1,-1,1757008751767030239
0,2.036242485,20250904135911767,None,-1,-1,2,-1,-1,-4,-2,0,1757008751767141580
0,2.04365921,20250904135911775,None,1,0,-4,-3,2,2,-1,-3,1757008751774744749
0,2.043876409,20250904135911775,None,-4,-1,-1,-1,2,-1,3,-1,1757008751774977684
0,2.058522939,20250904135911790,None,3,-3,-2,2,1,2,-4,-1,1757008751789685964
0,2.058644771,20250904135911790,None,1,-5,-1,-1,-4,-7,-3,0,1757008751789911031
0,2.065930843,20250904135911797,None,0,-1,-2,-1,4,5,4,2,1757008751797176837
0,2.06605649,20250904135911797,None,-5,-2,-1,-2,0,-3,-3,-3,1757008751797398805
0,2.073384523,20250904135911804,None,0,1,0,-1,-8,-2,1,1,1757008751804526567
0,2.073503732,20250904135911804,None,0,-1,-3,-3,-6,0,2,-3,1757008751804697751
0,2.088705539,20250904135911820,None,-1,0,-1,1,3,-1,0,0,1757008751819847345
0,2.08886218,20250904135911820,None,-3,-1,2,0,-2,-5,3,1,1757008751820044994
0,2.096142053,20250904135911827,None,1,3,0,2,4,2,0,-5,1757008751827342748
0,2.096258401,20250904135911827,None,2,-1,3,-1,3,-3,1,0,1757008751827544212
0,2.103505134,20250904135911834,None,0,-1,-1,0,3,3,-1,-4,1757008751834765672
0,2.103593349,20250904135911835,None,-4,-3,-1,4,2,1,-3,-1,1757008751834947586
0,2.118662595,20250904135911850,None,-3,0,-1,-16,-5,-3,3,2,1757008751849722623
0,2.118850946,20250904135911850,None,1,2,-1,2,1,2,2,0,1757008751849905014
0,2.126098871,20250904135911857,None,-3,1,1,2,-2,0,-5,-3,1757008751857270717
0,2.12620449,20250904135911857,None,-2,-1,-2,1,0,2,1,-1,1757008751857463359
0,2.133454084,20250904135911864,None,-1,-2,-3,3,-1,-1,-3,-6,1757008751864729881
0,2.13356471,20250904135911865,None,0,-1,-2,1,-2,0,-3,-3,1757008751864915370
0,2.148590087,20250904135911880,None,0,-2,1,-1,3,0,-1,-1,1757008751879826545
0,2.148715972,20250904135911880,None,1,1,1,2,-5,-6,-2,0,1757008751880014419
0,2.156052827,20250904135911887,None,1,-1,2,-1,-1,4,5,3,1757008751887302875
0,2.156153678,20250904135911887,None,-4,-2,-1,-3,0,2,-4,-3,1757008751887494087
0,2.163547754,20250904135911895,None,-2,-3,-1,-2,-1,-5,-1,-1,1757008751894800901
0,2.163649797,20250904135911895,None,-1,1,-1,-3,-2,-2,0,-2,1757008751894986391
0,2.178566217,20250904135911910,None,0,1,-1,1,-1,5,1,3,1757008751909780979
0,2.17866826,20250904135911910,None,1,-4,1,-1,0,-4,-4,-5,1757008751909968137
0,2.186202049,20250904135911917,None,2,2,3,-1,-1,-8,-2,-3,1757008751917275905
0,2.186466455,20250904135911917,None,-4,0,0,2,4,4,2,-1,1757008751917462825
0,2.193450212,20250904135911924,None,2,0,2,1,3,4,4,3,1757008751924520492
0,2.193603038,20250904135911925,None,-3,2,-1,0,2,4,1,3,1757008751924664974
0,2.208374738,20250904135911939,None,-2,1,2,-1,-4,0,0,-2,1757008751939466476
0,2.208503723,20250904135911939,None,-4,-4,-2,-3,-4,0,0,-1,1757008751939657688
0,2.215923547,20250904135911947,None,3,0,0,0,0,-1,-1,2,1757008751946950912
0,2.216051101,20250904135911947,None,-1,-3,-4,-1,-2,0,2,0,1757008751947083950
0,2.223266601,20250904135911954,None,0,-3,-2,-1,3,-3,-1,-5,1757008751954376935
0,2.223337173,20250904135911954,None,-3,1,-5,0,-5,-3,0,1,1757008751954483032
0,2.238316297,20250904135911969,None,3,1,0,2,-3,-1,-1,0,1757008751969409227
0,2.238388061,20250904135911969,None,-2,-1,-2,-1,0,3,5,-2,1757008751969540357
0,2.245771884,20250904135911977,None,1,2,0,0,7,3,-2,1,1757008751976869583
0,2.245860576,20250904135911977,None,0,1,-2,-2,-7,-7,2,4,1757008751976979732
0,2.253247022,20250904135911984,None,-1,-3,-2,-3,-1,-1,-1,-7,1757008751984370708
0,2.253329753,20250904135911984,None,-1,-2,-2,0,-2,1,2,1,1757008751984478473
0,2.268630981,20250904135912000,None,0,-1,-1,0,-1,-2,0,-2,1757008751999452352
0,2.268887043,20250904135912000,None,-4,-4,-1,9,6,3,0,-2,1757008751999585866
0,2.275845527,20250904135912007,None,-2,0,1,-9,-2,0,0,2,1757008752006922721
0,2.275920391,20250904135912007,None,1,-1,-1,-5,-4,-2,-2,0,1757008752007043361
0,2.283291339,20250904135912014,None,-3,-3,-1,2,4,2,-1,1,1757008752014400482
0,2.283359527,20250904135912014,None,-4,-3,-1,-3,-3,-4,-3,-5,1757008752014505386
0,2.298340559,20250904135912029,None,-3,-3,-2,3,5,4,0,-2,1757008752029438734
0,2.298422336,20250904135912029,None,2,-1,-2,-2,-8,0,-2,-3,1757008752029570579
0,2.306022882,20250904135912037,None,1,-2,-4,-3,-5,-3,-2,3,1757008752037026643
0,2.306118249,20250904135912037,None,-2,-3,2,0,0,-2,-1,1,1757008752037260770
0,2.313489914,20250904135912044,None,2,1,-2,1,1,-1,-6,-2,1757008752044565916
0,2.313585996,20250904135912045,None,-1,-1,-2,3,-1,-5,4,-1,1757008752044736623
0,2.328601837,20250904135912060,None,-3,-1,-2,-1,2,4,1,0,1757008752059642791
0,2.328674316,20250904135912060,None,-3,-4,-4,-2,3,-1,-6,0,1757008752059828758
0,2.336034774,20250904135912067,None,7,-2,-1,1,1,-4,-4,-1,1757008752067098617
0,2.336098432,20250904135912067,None,-1,3,1,2,-1,4,2,-4,1757008752067294359
0,2.343858718,20250904135912075,None,0,-1,-3,-7,-2,1,1,3,1757008752074844360
0,2.343926191,20250904135912075,None,-2,-1,-1,-2,-2,0,-4,-6,1757008752075027227
0,2.358882904,20250904135912090,None,0,1,-2,3,2,-1,0,-4,1757008752089576005
0,2.3590989110000002,20250904135912090,None,1,-4,0,-1,-1,-6,0,-1,1757008752089757442
0,2.366282701,20250904135912097,None,2,-3,0,-1,1,-4,-3,2,1757008752097092151
0,2.3664515010000002,20250904135912097,None,0,-1,-1,-1,-4,-1,5,-4,1757008752097259998
0,2.373595237,20250904135912105,None,-2,0,-3,0,2,5,-2,-5,1757008752104439020
0,2.373813152,20250904135912105,None,-3,-2,-2,-4,-3,-10,-7,-1,1757008752104563713
0,2.388822317,20250904135912120,None,-2,2,0,-1,0,-4,-2,-1,1757008752119593143
0,2.389307499,20250904135912120,None,1,1,-2,-3,-5,-3,0,0,1757008752119916200
0,2.396281242,20250904135912127,None,-2,1,4,7,2,5,0,-1,1757008752127194881
0,2.396463394,20250904135912127,None,-2,-1,1,-1,0,1,3,0,1757008752127431869
0,2.403722047,20250904135912135,None,-2,-2,-2,2,-3,-4,-2,1,1757008752134704351
0,2.403915166,20250904135912135,None,0,-1,-2,-2,-1,2,-1,0,1757008752134885549
0,2.418679952,20250904135912150,None,-2,-3,0,0,0,0,-8,-1,1757008752149652242
0,2.418899059,20250904135912150,None,0,1,0,2,-1,-1,-1,1,1757008752149836540
0,2.42604351,20250904135912157,None,-3,-4,-2,-2,1,-1,-1,1,1757008752157000303
0,2.426240444,20250904135912157,None,-1,1,1,0,-9,3,2,-4,1757008752157144784
0,2.441104888,20250904135912172,None,3,0,1,7,6,-2,0,-2,1757008752172077655
0,2.441307067,20250904135912172,None,1,-5,-1,-7,0,-2,-6,-2,1757008752172213792
0,2.448472738,20250904135912179,None,-1,-3,-2,-4,-4,0,0,0,1757008752179512739
0,2.448637247,20250904135912180,None,1,1,0,3,0,1,0,1,1757008752179621458
0,2.455981731,20250904135912187,None,-3,-1,-1,5,1,-1,1,-6,1757008752186964511
0,2.456158161,20250904135912187,None,-3,0,-3,-1,-1,-4,-3,-1,1757008752187086582
0,2.471053123,20250904135912202,None,0,2,-3,0,-4,0,0,-1,1757008752202026844
0,2.4712319369999998,20250904135912202,None,0,0,-1,-1,-1,-1,-2,0,1757008752202170133
0,2.478521347,20250904135912210,None,-1,-5,0,-4,2,-1,2,2,1757008752209510326
0,2.478711605,20250904135912210,None,-2,-1,-2,1,3,-2,1,-3,1757008752209649562
0,2.485908985,20250904135912217,None,-1,0,2,-6,-6,-1,-3,1,1757008752216931104
0,2.486077547,20250904135912217,None,2,-1,-2,-1,2,2,-1,-5,1757008752217035531
0,2.501159429,20250904135912232,None,-2,-3,-1,-3,-3,0,-2,-5,1757008752232094287
0,2.501335382,20250904135912232,None,-2,-2,0,-4,2,-3,-4,0,1757008752232262372
0,2.5085158339999998,20250904135912240,None,-2,0,-3,-2,-2,-3,2,1,1757008752239454269
0,2.508673906,20250904135912240,None,-2,-2,-1,-1,-1,-1,0,1,1757008752239596843
0,2.515527248,20250904135912247,None,-1,-2,-1,0,3,1,-5,-4,1757008752246819257
0,2.515594244,20250904135912247,None,-1,1,-3,0,-7,3,2,-3,1757008752246949434
0,2.530709981,20250904135912262,None,3,1,0,1,3,1,2,1,1757008752261921882
0,2.530822992,20250904135912262,None,-2,-1,0,0,-1,0,-1,-7,1757008752262072086
0,2.538056373,20250904135912269,None,2,2,2,-3,0,-2,1,-1,1757008752269372940
0,2.538140773,20250904135912269,None,-1,-3,-1,1,2,4,-2,0,1757008752269490957
0,2.545823574,20250904135912277,None,1,0,1,4,1,-1,-1,-1,1757008752277053356
0,2.545933485,20250904135912277,None,-2,-2,-1,-1,2,2,-2,-2,1757008752277275323
0,2.5609974859999998,20250904135912292,None,0,-3,1,-4,-1,4,-1,-1,1757008752292122125
0,2.561098575,20250904135912292,None,-1,-4,2,-1,-1,-7,7,0,1757008752292397737
0,2.568359375,20250904135912299,None,-1,-3,-2,-8,-15,-7,-3,-2,1757008752299598932
0,2.568439006,20250904135912299,None,-4,-2,-2,1,1,3,-4,-5,1757008752299788475
0,2.575945139,20250904135912307,None,-2,0,0,1,-1,-6,-4,-3,1757008752307068586
0,2.576024293,20250904135912307,None,3,2,1,0,-1,1,2,3,1757008752307280302
0,2.590793609,20250904135912322,None,-2,-2,-1,0,-1,3,2,-2,1757008752321948766
0,2.590887069,20250904135912322,None,-4,-1,-2,-3,-1,-1,-2,-3,1757008752322122335
0,2.5981018540000003,20250904135912329,None,-3,3,-2,0,2,-2,-2,3,1757008752329389572
0,2.5981883999999997,20250904135912329,None,1,0,-2,-1,-1,-1,-2,-8,1757008752329539537
0,2.605701208,20250904135912337,None,2,0,-3,-1,-3,-5,-2,2,1757008752336952924
0,2.605791807,20250904135912337,None,-2,-2,-4,9,2,0,-2,3,1757008752337134361
0,2.6210379599999998,20250904135912352,None,-1,-1,-3,-12,-1,2,0,0,1757008752352224349
0,2.621113777,20250904135912352,None,-1,-1,0,-5,1,-4,-3,-1,1757008752352452754
0,2.628434896,20250904135912359,None,0,-2,-1,2,-1,-3,-1,-1,1757008752359677553
0,2.628499746,20250904135912359,None,2,0,2,3,3,4,0,-1,1757008752359863281
0,2.636034965,20250904135912367,None,-1,4,0,1,6,-1,-2,-3,1757008752367255210
0,2.636139392,20250904135912367,None,1,0,-4,3,0,0,1,-3,1757008752367448091
0,2.650997877,20250904135912382,None,-1,0,0,0,-3,-4,0,2,1757008752382194280
0,2.65106368,20250904135912382,None,-2,-1,-1,-1,1,3,-2,-3,1757008752382415771
0,2.658345222,20250904135912389,None,1,-4,0,0,2,0,-1,1,1757008752389622211
0,2.658427953,20250904135912389,None,1,-3,-3,-6,-7,-1,0,0,1757008752389800310
0,2.665938377,20250904135912397,None,2,0,-2,-4,-3,-3,-5,1,1757008752397155046
0,2.666002512,20250904135912397,None,0,0,0,-2,0,-2,0,-1,1757008752397371053
0,2.680957555,20250904135912412,None,1,-3,-1,-6,0,-1,-1,1,1757008752412147521
0,2.681018829,20250904135912412,None,0,-1,0,-1,-2,0,0,2,1757008752412350416
0,2.688477516,20250904135912419,None,0,2,-4,1,-2,0,-5,-3,1757008752419749259
0,2.688658475,20250904135912420,None,1,-2,-3,1,1,0,7,-1,1757008752419972658
0,2.695720672,20250904135912427,None,-2,-2,0,1,0,-3,0,3,1757008752427025556
0,2.695796489,20250904135912427,None,-1,1,-1,0,-4,-1,-6,-2,1757008752427146673
0,2.71070075,20250904135912442,None,-3,0,-1,0,0,-7,-2,3,1757008752441995620
0,2.710797309,20250904135912442,None,6,-3,0,2,-2,-3,1,0,1757008752442112922
0,2.718209981,20250904135912449,None,-3,-4,-1,-1,-1,-2,1,-6,1757008752449519395
0,2.718283891,20250904135912449,None,1,4,1,2,1,1,-2,2,1757008752449626445
0,2.7256264679999997,20250904135912457,None,4,0,-3,-2,-7,-3,-1,-2,1757008752456958532
0,2.725711822,20250904135912457,None,3,0,-1,-3,1,-1,2,-5,1757008752457061529
0,2.74061799,20250904135912472,None,-2,0,0,1,-4,-2,3,-4,1757008752471924781
0,2.740703344,20250904135912472,None,-1,1,2,-1,-1,-4,-3,3,1757008752472028017
0,2.749352932,20250904135912480,None,-1,0,0,2,0,-2,-2,0,1757008752479955911
0,2.749573707,20250904135912481,None,0,1,0,-1,1,-1,-2,0,1757008752480260133
0,2.756870031,20250904135912488,None,2,-1,-3,-2,-4,-2,3,0,1757008752487535715
0,2.757075309,20250904135912488,None,-2,-1,-1,2,3,-5,0,-4,1757008752487747907
0,2.7716245649999998,20250904135912503,None,4,2,-1,-3,3,3,2,4,1757008752502329349
0,2.771860599,20250904135912503,None,-1,-2,0,-4,-3,-3,-4,0,1757008752502548694
0,2.778830289,20250904135912510,None,1,-4,0,5,-2,1,5,-5,1757008752509684562
0,2.779000759,20250904135912510,None,-4,-2,0,-1,0,3,0,-3,1757008752509869813
0,2.786548137,20250904135912518,None,-3,-1,-2,-11,-7,-12,-3,-2,1757008752517275810
0,2.7867987149999998,20250904135912518,None,-1,-1,0,5,2,1,-1,1,1757008752517494678
0,2.801405429,20250904135912532,None,1,-4,-1,3,-3,-2,0,0,1757008752532158613
0,2.8016023629999998,20250904135912533,None,1,2,-3,-3,2,3,1,-3,1757008752532451152
0,2.808481216,20250904135912539,None,0,-4,-3,2,-2,-1,-1,-1,1757008752539586305
0,2.808640956,20250904135912540,None,-2,-1,-1,0,-1,0,-4,-2,1757008752539820909
0,2.816004037,20250904135912547,None,2,1,-3,-3,-3,1,2,-1,1757008752546941041
0,2.8161964409999998,20250904135912547,None,1,1,-2,1,-3,-3,0,1,1757008752547098159
0,2.83095479,20250904135912562,None,0,-1,0,-1,1,0,0,2,1757008752561928749
0,2.831181049,20250904135912562,None,-3,-3,-1,-2,-3,-3,-3,-4,1757008752562050819
0,2.83826828,20250904135912569,None,2,-2,-1,-2,-10,-9,2,-3,1757008752569358587
0,2.838413477,20250904135912569,None,0,-2,-4,-3,5,4,0,2,1757008752569458246
0,2.845897913,20250904135912577,None,-2,-1,-4,0,-3,-3,-3,1,1757008752576863765
0,2.846083402,20250904135912577,None,-1,-1,-1,2,0,0,-3,-2,1757008752576983690
0,2.86084032,20250904135912592,None,1,-2,1,2,1,0,-1,-2,1757008752591829776
0,2.861018657,20250904135912592,None,0,-2,-3,-1,-5,-5,-4,-1,1757008752591956138
0,2.868221759,20250904135912599,None,0,-1,-2,-4,-3,-1,-1,-3,1757008752599282979
0,2.868385076,20250904135912599,None,1,-2,0,-1,1,0,-2,1,1757008752599384784
0,2.883330822,20250904135912614,None,0,-2,0,-3,1,1,-1,4,1757008752614360809
0,2.8835067739999998,20250904135912614,None,-5,0,1,0,2,-1,1,-1,1757008752614478588
0,2.890856266,20250904135912622,None,-3,-2,-2,-1,1,-2,-5,-5,1757008752621868133
0,2.891024112,20250904135912622,None,0,0,0,-4,-10,-4,-2,1,1757008752621981382
0,2.898313045,20250904135912629,None,-1,0,-2,-1,-7,-3,0,1,1757008752629346609
0,2.89849925,20250904135912629,None,0,1,1,0,10,5,-1,-1,1757008752629457712
0,2.905816555,20250904135912637,None,-4,-5,-2,-2,-2,1,-3,-2,1757008752636837720
0,2.905997991,20250904135912637,None,4,2,-1,-2,1,0,4,0,1757008752636937379
0,2.9208498,20250904135912652,None,1,2,-1,-1,-2,-4,1,3,1757008752651839017
0,2.92102766,20250904135912652,None,-1,-1,1,2,-1,-2,-10,-6,1757008752651953697
0,2.928753614,20250904135912660,None,-3,-1,2,0,-3,0,-1,-3,1757008752659620523
0,2.928982973,20250904135912660,None,-1,0,-2,1,4,-1,-2,0,1757008752659795522
0,2.935876607,20250904135912667,None,0,-1,-1,6,2,-2,2,4,1757008752666966438
0,2.935971975,20250904135912667,None,-1,-3,1,-8,2,-1,3,-4,1757008752667092323
0,2.950560569,20250904135912682,None,-3,-1,-2,-8,-8,-4,-2,4,1757008752681757688
0,2.950641155,20250904135912682,None,-4,-1,-5,2,0,-1,0,-8,1757008752681845903
0,2.9581060409999997,20250904135912689,None,0,-1,-1,1,3,7,0,1,1757008752689296245
0,2.958180189,20250904135912689,None,2,-1,-1,-1,0,-1,-1,0,1757008752689393043
0,2.965814828,20250904135912697,None,0,0,-1,-1,-1,-6,-2,-2,1757008752696885347
0,2.965963363,20250904135912697,None,-2,-1,1,0,1,0,0,0,1757008752696993827
0,2.980886697,20250904135912712,None,-3,-3,2,-1,1,-3,-2,1,1757008752711936235
0,2.981031656,20250904135912712,None,2,1,1,4,3,7,0,0,1757008752712049722
0,2.988480806,20250904135912719,None,-4,0,-2,0,-2,-7,-3,-8,1757008752719484567
0,2.988666296,20250904135912720,None,0,1,-2,-4,0,-4,0,2,1757008752719594001
0,2.996005535,20250904135912727,None,1,1,0,-3,-4,-1,1,3,1757008752726961135
0,2.996254682,20250904135912727,None,0,-2,-3,-3,-2,0,-2,-2,1757008752727117300
0,3.011037826,20250904135912742,None,-2,-2,2,-2,-4,-3,1,-2,1757008752741994857
0,3.011253118,20250904135912742,None,-5,0,3,0,1,1,4,3,1757008752742134332
0,3.018612861,20250904135912750,None,1,-3,-1,0,4,2,-3,2,1757008752749490022
0,3.018794059,20250904135912750,None,1,-2,0,1,-1,2,1,-4,1757008752749542951
0,3.026361227,20250904135912757,None,1,-2,1,0,1,0,-2,4,1757008752757095336
0,3.026556968,20250904135912758,None,-3,-1,-3,-5,-3,-4,-2,-9,1757008752757292985
0,3.041214704,20250904135912772,None,4,-1,-1,0,-1,-2,2,1,1757008752772003412
0,3.041420459,20250904135912772,None,-3,-3,-4,2,4,-1,-3,-4,1757008752772119998
0,3.048803329,20250904135912780,None,-2,0,-1,-3,-12,-2,-1,1,1757008752779605150
0,3.048969984,20250904135912780,None,-2,-3,-2,-3,2,1,3,0,1757008752779762744
0,3.05635643,20250904135912787,None,-1,1,1,-3,0,-5,-3,2,1757008752787060022
0,3.056524753,20250904135912788,None,0,-3,-1,0,1,4,-1,-2,1757008752787181377
0,3.071303367,20250904135912802,None,1,-3,-3,2,-1,0,-1,1,1757008752802079916
0,3.071491003,20250904135912802,None,-4,0,1,-2,1,-5,2,-6,1757008752802198410
0,3.078614235,20250904135912810,None,-5,-1,-1,-3,-1,-1,0,-1,1757008752809497356
0,3.078808784,20250904135912810,None,4,2,0,3,4,0,-1,-2,1757008752809793949
0,3.086493253,20250904135912817,None,-1,-1,-2,-5,-6,-1,-1,-1,1757008752817263603
0,3.086685419,20250904135912818,None,-3,3,-2,-1,-1,0,-1,-2,1757008752817451477
0,3.101380586,20250904135912832,None,-2,-1,-3,0,-3,-6,-2,-1,1757008752832145929
0,3.101542472,20250904135912833,None,2,-2,1,1,0,0,-2,1,1757008752832339525
0,3.108647346,20250904135912840,None,-3,-3,2,2,4,-6,-6,0,1757008752839604139
0,3.108834981,20250904135912840,None,-2,-2,0,-18,-5,2,1,-2,1757008752839789152
0,3.116237163,20250904135912847,None,-1,0,0,-1,0,-1,3,-2,1757008752847166299
0,3.116412639,20250904135912847,None,-1,-3,0,1,0,2,0,7,1757008752847383260
0,3.131237745,20250904135912862,None,-4,3,1,1,1,-2,-3,-6,1757008752862185239
0,3.131417274,20250904135912862,None,-1,-1,0,3,-4,-3,-1,-10,1757008752862400054
0,3.138700246,20250904135912870,None,-1,-2,-4,0,2,2,1,3,1757008752869697093
0,3.138896465,20250904135912870,None,-4,-6,-2,-4,-5,-1,0,-4,1757008752869882345
0,3.146230936,20250904135912877,None,2,-2,0,-1,1,1,-1,2,1757008752877189636
0,3.146408081,20250904135912877,None,-3,0,-1,-1,-1,1,-2,0,1757008752877398252
0,3.161224603,20250904135912892,None,-2,2,-2,0,0,-3,2,1,1757008752892173528
0,3.16142416,20250904135912892,None,1,2,-3,-3,0,0,0,-1,1757008752892385721
0,3.168657302,20250904135912900,None,0,-4,1,0,1,-1,-4,-2,1757008752899657487
0,3.168865442,20250904135912900,None,-1,0,-1,2,2,1,1,-3,1757008752899832248
0,3.176292419,20250904135912907,None,0,-2,-2,-1,2,-3,2,1,1757008752907154083
0,3.176535844,20250904135912908,None,-1,3,-1,-5,-13,1,-3,-2,1757008752907374143
0,3.191261768,20250904135912922,None,-1,0,-4,1,2,2,-2,-1,1757008752922190189
0,3.191447734,20250904135912922,None,0,0,0,2,4,-1,1,-5,1757008752922480821
0,3.198478698,20250904135912929,None,-1,-1,-3,-4,-2,2,0,-1,1757008752929517030
0,3.198640585,20250904135912930,None,-3,0,-3,1,1,3,-3,0,1757008752929631471
0,3.205986738,20250904135912937,None,1,-1,0,-1,-10,-6,0,3,1757008752936993837
0,3.206186533,20250904135912937,None,-3,1,-2,3,1,-8,-3,-2,1757008752937099695
0,3.229223728,20250904135912960,None,1,0,0,-2,1,-2,-2,9,1757008752960156202
0,3.229403019,20250904135912960,None,0,1,-2,0,0,0,3,-6,1757008752960266351
0,3.229875326,20250904135912961,None,-3,-2,-1,-3,0,1,0,3,1757008752960922956
0,3.230040073,20250904135912961,None,-2,1,-3,-1,0,1,0,-3,1757008752961019992
0,3.235999107,20250904135912967,None,0,2,-3,2,-1,0,-2,0,1757008752967008352
0,3.236197471,20250904135912967,None,0,-1,-1,-3,-2,1,2,-1,1757008752967107057
0,3.2510426040000002,20250904135912982,None,-1,-1,-2,1,-3,-1,1,-1,1757008752982006549
0,3.251235723,20250904135912982,None,0,-1,0,-2,-1,-1,-3,-3,1757008752982133388
0,3.258682012,20250904135912990,None,-1,-1,2,-1,-4,-3,-2,0,1757008752989546775
0,3.258883476,20250904135912990,None,1,-2,0,-4,-4,0,-5,1,1757008752989664316
0,3.266127109,20250904135912997,None,1,-2,2,1,-2,-3,-7,4,1757008752996963500
0,3.266333103,20250904135912997,None,-3,-1,-2,9,3,0,-4,-8,1757008752997065067
0,3.281202793,20250904135913012,None,-2,-1,-3,-8,-2,-3,-2,-1,1757008753012015342
0,3.281380653,20250904135913012,None,1,-3,3,-2,-2,5,0,1,1757008753012120723
0,3.288870811,20250904135913020,None,0,-2,-2,1,-1,-3,0,0,1757008753019735336
0,3.289013624,20250904135913020,None,-2,-3,0,5,3,2,-1,-2,1757008753019914388
0,3.295924186,20250904135913027,None,-2,-4,0,1,-1,3,1,0,1757008753026856184
0,3.296071767,20250904135913027,None,2,-1,-1,-4,-1,1,0,-1,1757008753026991367
0,3.310918331,20250904135913042,None,1,-1,0,0,-5,-1,-1,0,1757008753041962385
0,3.311043739,20250904135913042,None,0,-2,0,0,0,-3,3,-5,1757008753042103290
0,3.318355798,20250904135913049,None,0,1,-1,2,-1,0,-1,-3,1757008753049402952
0,3.318482399,20250904135913049,None,0,-3,0,-5,-4,-1,1,6,1757008753049513816
0,3.325642108,20250904135913057,None,-5,-2,-1,-3,2,-4,-3,1,1757008753056791305
0,3.325711011,20250904135913057,None,-3,0,-3,-1,-5,-3,-2,-1,1757008753056891441
0,3.341411829,20250904135913072,None,2,-1,-2,0,-1,-2,3,1,1757008753072149753
0,3.341619491,20250904135913073,None,-2,0,-2,-1,1,2,1,1,1757008753072396516
0,3.3571157449999998,20250904135913088,None,-3,0,0,1,0,-1,-1,-1,1757008753087814331
0,3.357315063,20250904135913088,None,-1,-3,-1,0,0,0,3,3,1757008753088016986
0,3.35814166,20250904135913089,None,-1,0,2,1,-6,-3,-3,-5,1757008753088713645
0,3.358387231,20250904135913089,None,-2,-1,1,-1,-2,0,-4,2,1757008753088911771
0,3.371260404,20250904135913102,None,-2,-1,-3,-4,2,1,0,0,1757008753102097511
0,3.371435165,20250904135913102,None,0,2,-3,1,5,-1,-2,-5,1757008753102281332
0,3.378725051,20250904135913110,None,2,-1,-1,1,-2,1,-4,0,1757008753109707593
0,3.378851652,20250904135913110,None,-2,-1,0,-1,-9,-4,-3,0,1757008753109890460
0,3.393640756,20250904135913125,None,-1,-1,3,0,0,0,-2,0,1757008753124641180
0,3.393726825,20250904135913125,None,-3,-4,-1,-2,-1,0,0,2,1757008753124810934
0,3.400848865,20250904135913132,None,-6,-2,-2,2,3,1,-5,-2,1757008753131951570
0,3.400969982,20250904135913132,None,2,3,0,0,-3,0,0,3,1757008753132048845
0,3.408476829,20250904135913139,None,-2,-2,0,-2,-2,1,-1,-1,1757008753139599323
0,3.408559799,20250904135913140,None,0,-1,-1,-1,-2,-1,-2,-4,1757008753139701366
0,3.423484325,20250904135913154,None,2,2,0,2,-1,3,1,2,1757008753154597520
0,3.423582553,20250904135913155,None,-1,-3,-1,-5,-1,6,-3,-3,1757008753154697179
0,3.431303262,20250904135913162,None,-1,-3,-4,0,-3,-13,-1,-3,1757008753162339687
0,3.431375503,20250904135913162,None,-2,-4,0,-2,0,4,-5,0,1757008753162519454
0,3.438751697,20250904135913170,None,-2,-2,1,8,-2,0,-3,1,1757008753169802665
0,3.438831806,20250904135913170,None,-1,-2,1,-8,0,3,3,1,1757008753169976234
0,3.453852653,20250904135913185,None,-3,-3,-3,-8,-3,-4,-1,-3,1757008753184821844
0,3.453943967,20250904135913185,None,3,0,-1,2,0,0,0,3,1757008753185009241
0,3.461187839,20250904135913192,None,0,2,1,4,1,0,1,0,1757008753192329883
0,3.461283445,20250904135913192,None,-1,-1,-1,0,4,-3,0,-1,1757008753192517518
0,3.468572378,20250904135913200,None,-1,-1,-1,-2,-3,-3,0,1,1757008753199820995
0,3.468675136,20250904135913200,None,-3,-3,-2,-1,0,-1,-2,-3,1757008753200010061
0,3.483549594,20250904135913215,None,1,0,0,-2,-6,-3,1,-2,1757008753214769601
0,3.483646154,20250904135913215,None,0,1,2,0,-2,-3,-10,-1,1757008753214980840
0,3.491189241,20250904135913222,None,1,0,-1,0,0,1,6,3,1757008753222355127
0,3.4921917909999998,20250904135913223,None,1,1,0,1,-3,-2,1,-5,1757008753222795009
0,3.498831272,20250904135913230,None,-4,0,-1,-1,0,1,-1,0,1757008753229807376
0,3.498946905,20250904135913230,None,-2,1,-2,0,-1,-5,2,-3,1757008753229979991
0,3.513829231,20250904135913245,None,-5,-3,-1,0,3,-3,-2,-2,1757008753244811534
0,3.51393485,20250904135913245,None,0,-3,0,0,-1,-2,-6,-1,1757008753244992494
0,3.521293163,20250904135913252,None,-3,-3,0,1,-1,2,6,0,1757008753252333879
0,3.5213651649999997,20250904135913252,None,2,-5,-2,0,4,1,-2,1,1757008753252521514
0,3.528707742,20250904135913260,None,0,-2,-1,-3,0,-1,-1,0,1757008753259701728
0,3.528844118,20250904135913260,None,-1,-1,0,-5,-6,0,-4,2,1757008753259873867
0,3.543849706,20250904135913275,None,-3,1,-1,0,1,-4,-1,-4,1757008753274772644
0,3.543974876,20250904135913275,None,-2,1,-1,-3,-8,-2,4,1,1757008753274954557
0,3.551228761,20250904135913282,None,0,0,2,0,2,-2,-3,-3,1757008753282278299
0,3.551303625,20250904135913282,None,-1,0,-2,3,0,1,0,3,1757008753282448530
0,3.558671474,20250904135913290,None,-2,0,-1,-5,-9,-4,0,-7,1757008753289724111
0,3.5587520599999998,20250904135913290,None,-4,1,2,-1,3,1,-2,-1,1757008753289897680
0,3.573824167,20250904135913305,None,-2,3,-2,-3,0,0,-5,-3,1757008753304798126
0,3.573930502,20250904135913305,None,0,-2,-1,-5,-4,-1,-2,4,1757008753304979562
0,3.5813138479999997,20250904135913312,None,-3,-1,1,1,2,1,0,3,1757008753312282562
0,3.581433773,20250904135913312,None,-7,-1,-2,-3,0,-4,0,-4,1757008753312469244
0,3.588753223,20250904135913320,None,2,0,-3,-4,-2,2,-1,-4,1757008753319787025
0,3.588845729,20250904135913320,None,1,-5,-1,-1,1,-1,0,-1,1757008753319972515
0,3.60385704,20250904135913335,None,-2,3,-1,6,4,-3,1,1,1757008753334787845
0,3.6039690970000002,20250904135913335,None,-2,0,1,-3,-1,0,-3,0,1757008753334974288
0,3.611413002,20250904135913342,None,0,3,-2,-14,-4,-1,-1,-1,1757008753342376947
0,3.611574173,20250904135913343,None,0,-1,1,1,-1,0,3,-5,1757008753342548370
0,3.618663549,20250904135913350,None,-3,-1,0,2,1,0,-6,6,1757008753349551439
0,3.618856191,20250904135913350,None,0,-3,-1,1,-1,-3,-5,1,1757008753349675416
0,3.634069919,20250904135913365,None,-2,-4,-1,1,-4,-5,-1,-3,1757008753364865303
0,3.6342351429999997,20250904135913365,None,2,-1,0,0,3,1,4,-2,1757008753365069866
0,3.6413588519999998,20250904135913372,None,1,-1,-2,1,0,2,-1,0,1757008753372338771
0,3.641461134,20250904135913372,None,-1,0,-3,-3,0,-1,-1,1,1757008753372527360
0,3.6488835809999998,20250904135913380,None,-2,-1,-1,-3,-1,-7,-1,-3,1757008753379807233
0,3.649007558,20250904135913380,None,-2,0,-2,-1,0,2,0,0,1757008753380001544
0,3.663890838,20250904135913395,None,-1,1,1,0,3,3,-1,-1,1757008753394821405
0,3.663995504,20250904135913395,None,0,-3,0,1,-3,-1,-4,-2,1757008753395027399
0,3.671594142,20250904135913403,None,1,1,1,1,-4,4,1,-4,1757008753402659416
0,3.671661615,20250904135913403,None,0,-4,-1,-2,-1,-9,-5,-5,1757008753402830600
0,3.678497791,20250904135913409,None,-1,0,0,-4,0,3,2,1,1757008753409524679
0,3.678605318,20250904135913410,None,-2,-2,1,2,0,1,-1,-2,1757008753409689426
0,3.694151401,20250904135913425,None,-4,-1,-3,1,-1,-2,-3,2,1757008753424918174
0,3.694338798,20250904135913425,None,-2,1,-3,-1,0,1,3,4,1757008753425119161
0,3.701657772,20250904135913433,None,-3,-4,-3,-1,1,-6,-4,-7,1757008753432402372
0,3.701834201,20250904135913433,None,1,-3,-2,-2,-11,-2,-1,-2,1757008753432589530
0,3.709073066,20250904135913440,None,-3,-1,1,-2,-3,-1,-2,0,1757008753439900636
0,3.709250688,20250904135913440,None,-4,0,-1,1,2,1,1,0,1757008753440090417
0,3.725054025,20250904135913456,None,0,-3,0,2,-2,0,-1,-1,1757008753455171585
0,3.725252389,20250904135913456,None,6,1,1,-2,-1,0,-2,-1,1757008753455648422
0,3.7315266129999998,20250904135913463,None,1,-3,1,0,3,4,0,1,1757008753462263584
0,3.731728553,20250904135913463,None,-4,-1,-4,-3,1,-3,1,-5,1757008753462457418
0,3.739264726,20250904135913470,None,0,-2,1,-2,-4,-2,-2,0,1757008753469974756
0,3.739439249,20250904135913470,None,0,-2,-3,1,-4,-4,-4,2,1757008753470174551
0,3.754269838,20250904135913485,None,-3,-1,-1,5,4,1,0,-1,1757008753484911203
0,3.754500389,20250904135913485,None,-3,3,0,1,-1,4,1,-3,1757008753485121726
0,3.7612738610000003,20250904135913492,None,-2,-2,-4,-2,-2,0,-3,-1,1757008753492182970
0,3.761435747,20250904135913492,None,-3,-3,1,-4,1,-3,0,-2,1757008753492366075
0,3.76859188,20250904135913500,None,1,-3,1,3,0,-1,-5,0,1757008753499629974
0,3.768710136,20250904135913500,None,0,2,-1,-1,1,2,0,-3,1757008753499768972
0,3.783495903,20250904135913514,None,-1,-2,2,9,0,-2,-2,-2,1757008753514565706
0,3.783653974,20250904135913515,None,-3,-1,-2,-14,2,0,-2,-2,1757008753514696121
0,3.79114604,20250904135913522,None,0,2,0,-2,0,-2,0,3,1757008753522104263
0,3.7912821770000003,20250904135913522,None,-1,-2,0,-4,-7,-3,-2,0,1757008753522263765
0,3.798501491,20250904135913529,None,-2,1,1,3,3,-4,-4,3,1757008753529573202
0,3.79860568,20250904135913530,None,4,-4,-4,0,1,-1,1,-4,1757008753529700040
0,3.8137538429999998,20250904135913545,None,1,-1,-1,0,0,0,-2,1,1757008753544652700
0,3.813920497,20250904135913545,None,-4,0,-1,1,-4,0,1,1,1757008753544910430
0,3.8210322850000003,20250904135913552,None,2,-2,-2,-1,-2,0,-1,-8,1757008753552114963
0,3.821131229,20250904135913552,None,2,0,-2,-1,0,-7,-2,0,1757008753552254199
0,3.8285439009999997,20250904135913560,None,-3,-2,-5,-3,0,4,0,-1,1757008753559593915
0,3.828655242,20250904135913560,None,-1,-2,1,-3,-1,-4,0,0,1757008753559727191
0,3.843946933,20250904135913575,None,-1,1,1,-3,0,-4,-1,3,1757008753574612379
0,3.844388008,20250904135913575,None,-5,1,-2,0,-4,0,0,-1,1757008753574781417
0,3.85102272,20250904135913582,None,-2,-4,-2,-2,-5,-5,-2,-4,1757008753581939458
0,3.851234197,20250904135913582,None,0,-3,2,0,6,5,0,-3,1757008753582061290
0,3.858892202,20250904135913590,None,-4,1,-3,-2,0,0,-1,0,1757008753589509725
0,3.859114646,20250904135913590,None,0,-2,-1,1,2,3,-1,0,1757008753589665889
0,3.873526096,20250904135913605,None,-2,1,-4,-2,-7,-5,-5,-6,1757008753604509115
0,3.873623609,20250904135913605,None,1,2,-2,0,-3,-3,0,0,1757008753604680776
0,3.880942821,20250904135913612,None,2,2,-1,-1,-1,-3,0,-1,1757008753611958980
0,3.881034612,20250904135913612,None,-1,-1,-1,0,-2,4,-1,-2,1757008753612079858
0,3.88873291,20250904135913620,None,-7,-4,1,-3,3,-2,2,1,1757008753619713306
0,3.888827562,20250904135913620,None,3,-2,-2,2,0,-2,-3,-1,1757008753619912862
0,3.903558254,20250904135913635,None,3,-1,0,-3,-1,2,4,1,1757008753634555578
0,3.90368247,20250904135913635,None,-1,0,0,0,0,-1,-5,0,1757008753634712457
0,3.911218881,20250904135913642,None,-4,-2,-1,1,-4,-3,1,1,1757008753642167091
0,3.9113960260000002,20250904135913642,None,-3,2,1,0,-2,1,-2,-2,1757008753642395019
0,3.9185926909999997,20250904135913650,None,-2,0,0,0,-4,0,1,-4,1757008753649720668
0,3.918672323,20250904135913650,None,-2,2,0,-1,-4,-2,-2,-2,1757008753649907827
0,3.933549642,20250904135913665,None,-1,-2,1,4,5,-1,0,0,1757008753664716720
0,3.93364644,20250904135913665,None,1,0,1,0,0,2,0,-1,1757008753664897441
0,3.941090345,20250904135913672,None,-2,-1,-2,-15,-6,-5,-3,0,1757008753672214508
0,3.941159486,20250904135913672,None,-1,-4,-1,0,-5,1,-2,-2,1757008753672435283
0,3.948608875,20250904135913680,None,0,0,-4,2,0,3,-2,2,1757008753679754018
0,3.948681116,20250904135913680,None,-1,0,-1,3,3,3,-4,1,1757008753679939985
0,3.972010135,20250904135913703,None,3,-1,0,0,-2,0,-3,5,1757008753702943801
0,3.97209382,20250904135913703,None,-3,-3,-1,-2,-7,0,0,-4,1757008753703160762
0,3.972567796,20250904135913704,None,1,-4,-2,-1,5,-1,-3,-6,1757008753703683853
0,3.972644567,20250904135913704,None,0,-2,-4,-1,-3,-2,2,2,1757008753703814506
0,3.978434562,20250904135913709,None,-1,-1,2,-3,0,-1,1,-7,1757008753709539413
0,3.9785063259999998,20250904135913709,None,2,0,-2,-5,3,1,2,1,1757008753709651947
0,3.9934589860000003,20250904135913724,None,0,-1,1,-1,0,-2,-3,0,1757008753724552869
0,3.993530273,20250904135913725,None,2,-1,0,2,0,-4,1,-2,1757008753724693536
0,4.001081705,20250904135913732,None,-1,-6,1,0,0,0,-1,2,1757008753732012987
0,4.001354217,20250904135913732,None,-4,-2,1,-6,-2,0,1,-1,1757008753732137918
0,4.008364439,20250904135913739,None,0,-2,-3,-1,-1,6,1,-1,1757008753739490270
0,4.008479118,20250904135913739,None,1,-3,1,2,-1,-4,0,1,1757008753739624261
0,4.023792982,20250904135913755,None,-1,-1,-3,-2,-1,-4,-1,-1,1757008753754732608
0,4.023910045,20250904135913755,None,0,-2,-2,-4,-4,1,-5,-1,1757008753754914045
0,4.031300783,20250904135913762,None,2,0,-5,3,0,2,0,1,1757008753762186765
0,4.031433343,20250904135913762,None,-1,-2,-2,-1,3,0,3,-4,1757008753762400627
0,4.038620233,20250904135913770,None,0,-3,0,-3,-2,8,-2,-2,1757008753769669771
0,4.038691282,20250904135913770,None,-1,-1,-3,-1,-3,-6,-2,-1,1757008753769840717
0,4.053699255,20250904135913785,None,0,2,-6,0,-2,-3,-2,3,1757008753784692049
0,4.053834915,20250904135913785,None,-1,0,0,1,3,3,-2,-4,1757008753784867286
0,4.061262846,20250904135913792,None,2,-1,0,4,-3,-1,2,4,1757008753792177200
0,4.061397314,20250904135913792,None,-3,-4,-4,-2,2,-1,-4,-10,1757008753792399644
0,4.068589925,20250904135913800,None,-1,1,1,-1,-2,2,-1,-1,1757008753799655199
0,4.068656206,20250904135913800,None,1,-2,-2,-1,1,-2,-4,-1,1757008753799827814
0,4.083757877,20250904135913815,None,-3,-2,2,8,7,-1,-4,-4,1757008753814716339
0,4.083898782,20250904135913815,None,2,-1,2,-13,-5,-2,0,0,1757008753814904689
0,4.091211319,20250904135913822,None,2,0,-1,-1,-4,-3,0,0,1757008753822217464
0,4.091281414,20250904135913822,None,2,0,2,0,2,1,-1,0,1757008753822445869
0,4.106157779,20250904135913837,None,-2,4,-4,7,3,-2,-1,-3,1757008753837098836
0,4.106312751,20250904135913837,None,0,-1,-2,-2,-2,1,-1,1,1757008753837270259
0,4.113790512,20250904135913845,None,0,-3,0,1,5,1,-2,-7,1757008753844660043
0,4.11394763,20250904135913845,None,-1,2,2,-2,-4,-3,-1,0,1757008753844842195
0,4.12120223,20250904135913852,None,-3,2,2,0,-2,-1,3,-4,1757008753852162837
0,4.121301174,20250904135913852,None,0,-2,1,2,1,-2,-2,-1,1757008753852382898
0,4.128692388,20250904135913860,None,-1,-1,1,-1,-1,-3,-2,2,1757008753859665632
0,4.128837108,20250904135913860,None,-3,0,-1,-1,-2,0,0,-2,1757008753859838008
0,4.143687248,20250904135913875,None,-1,-2,-3,-1,-1,-3,-3,2,1757008753874673366
0,4.143838644,20250904135913875,None,-2,-3,-1,3,0,0,3,4,1757008753874831676
0,4.151200771,20250904135913882,None,-3,-3,-2,0,-5,-2,1,-6,1757008753882180690
0,4.151298999,20250904135913882,None,5,4,0,0,1,4,-1,-1,1757008753882389307
0,4.1586411,20250904135913890,None,-1,-3,1,1,-2,2,1,1,1757008753889687061
0,4.158725023,20250904135913890,None,-3,-1,3,-5,1,0,-3,0,1757008753889861106
0,4.173708677,20250904135913905,None,-1,-1,-1,-4,-2,-2,-4,-2,1757008753904731750
0,4.173808574,20250904135913905,None,-1,0,-1,0,-3,2,4,-1,1757008753904907464
0,4.181245088,20250904135913912,None,-1,-2,0,2,2,-4,1,-3,1757008753912189483
0,4.181347847,20250904135913912,None,0,0,-1,-2,-1,-4,-6,2,1757008753912388086
0,4.188610792,20250904135913920,None,-4,-2,-2,3,2,2,0,-6,1757008753919674396
0,4.1886765950000004,20250904135913920,None,-2,1,0,-3,-6,0,-2,-2,1757008753919850349
0,4.203837871,20250904135913935,None,-1,0,1,-1,-3,0,-1,-3,1757008753934716939
0,4.203953027,20250904135913935,None,0,-3,-3,-2,1,2,-3,2,1757008753934905529
0,4.211557626,20250904135913943,None,-1,-1,1,0,-3,1,3,2,1757008753942205905
0,4.211795806,20250904135913943,None,-2,2,2,0,-1,-3,-1,-1,1757008753942433595
0,4.218731165,20250904135913950,None,-3,1,-4,0,3,0,-1,-2,1757008753949698448
0,4.218848943,20250904135913950,None,-2,0,0,9,0,2,2,0,1757008753949873924
0,4.233753442,20250904135913965,None,-1,-3,-2,-14,-3,1,-2,-3,1757008753964673280
0,4.233901739,20250904135913965,None,1,-1,2,-1,0,0,0,0,1757008753964859247
0,4.241131067,20250904135913972,None,0,-3,-4,0,-2,-6,-2,2,1757008753972146987
0,4.24120593,20250904135913972,None,-2,-4,0,1,0,0,0,-5,1757008753972356081
0,4.248795509,20250904135913980,None,2,3,-1,3,1,1,-3,-3,1757008753979684591
0,4.24892497,20250904135913980,None,0,2,-2,0,-3,-3,-1,6,1757008753979868888
0,4.263815641,20250904135913995,None,-4,-2,-3,2,2,0,-4,-3,1757008753994737148
0,4.263979911,20250904135913995,None,-3,-2,-3,-3,-7,-5,-3,-4,1757008753994917869
0,4.271226167,20250904135914002,None,-1,-2,1,1,-2,-1,1,3,1757008754002218008
0,4.271308899,20250904135914002,None,0,-1,2,0,4,3,1,3,1757008754002434015
0,4.27873063,20250904135914010,None,0,-2,1,1,-4,0,0,0,1757008754009676218
0,4.278844595,20250904135914010,None,-5,1,-1,-4,-3,3,2,1,1757008754009850025
0,4.294048309,20250904135914025,None,-5,-4,-2,-3,-3,-6,0,0,1757008754024695873
0,4.294268846,20250904135914025,None,0,1,-1,-4,4,-1,0,0,1757008754024878501
0,4.301215648,20250904135914032,None,6,-1,0,0,-1,-1,-1,-4,1757008754032160282
0,4.301330328,20250904135914032,None,-1,0,-1,-1,-1,0,-8,-2,1757008754032365083
0,4.315918922,20250904135914047,None,-1,-1,-5,0,-4,3,1,0,1757008754047037363
0,4.315982341,20250904135914047,None,-1,-1,-1,-3,-1,-3,2,1,1757008754047166109
0,4.323638677,20250904135914055,None,-2,1,0,-1,1,-1,1,-3,1757008754054698228
0,4.32369852,20250904135914055,None,-1,-4,-2,-1,-3,-3,-3,-2,1757008754054879426
0,4.331246137,20250904135914062,None,-1,0,-1,-8,-8,-6,-2,5,1757008754062212705
0,4.331368446,20250904135914062,None,1,0,-3,-3,0,1,-1,-6,1757008754062424898
0,4.346258401,20250904135914077,None,-1,-1,-2,-1,1,0,1,-5,1757008754077185630
0,4.346440553,20250904135914077,None,0,-2,-2,-3,2,2,2,0,1757008754077404022
0,4.353630304,20250904135914085,None,2,-1,1,1,5,2,3,-2,1757008754084666013
0,4.353705883,20250904135914085,None,-2,2,-5,-2,-3,-4,-4,-3,1757008754084849119
0,4.361699104,20250904135914093,None,-1,-1,-1,1,-4,-1,3,3,1757008754092199563
0,4.362184763,20250904135914093,None,-1,-4,1,7,1,0,-10,0,1757008754092458009
0,4.37610054,20250904135914107,None,-2,1,-1,-7,3,2,2,1,1757008754106957912
0,4.376264333,20250904135914107,None,1,-3,-3,-4,-2,-2,-4,0,1757008754107079505
0,4.383519649,20250904135914115,None,-2,0,1,2,1,1,0,-3,1757008754114506483
0,4.383684158,20250904135914115,None,1,-4,-2,0,0,0,1,1,1757008754114621877
0,4.390888929,20250904135914122,None,1,-1,-2,1,-2,-2,-1,-5,1757008754121896743
0,4.391029596,20250904135914122,None,0,-2,-4,3,-1,1,-1,-1,1757008754122027635
0,4.405631303,20250904135914137,None,-2,2,0,-2,-1,-1,-2,-3,1757008754136850833
0,4.405730962,20250904135914137,None,0,-4,-4,-1,-3,-1,-2,-5,1757008754136972904
0,4.413158893,20250904135914144,None,5,0,1,-2,-1,-1,4,4,1757008754144396305
0,4.413249969,20250904135914144,None,-1,-2,0,0,-3,-1,-3,-4,1757008754144544363
0,4.420516967,20250904135914151,None,2,-4,-1,-5,3,-3,4,-3,1757008754151824474
0,4.420593023,20250904135914152,None,-1,0,-5,-4,-7,-2,-2,-8,1757008754151939868
0,4.435662269,20250904135914167,None,-2,-1,-3,2,4,2,-2,5,1757008754166889190
0,4.43575716,20250904135914167,None,-4,1,-2,-3,-1,-3,-6,-3,1757008754167028427
0,4.443087577,20250904135914174,None,-1,0,2,1,-2,-4,-1,0,1757008754174414634
0,4.443154811,20250904135914174,None,5,1,0,0,0,0,2,3,1757008754174527168
0,4.450647354,20250904135914182,None,0,0,-2,4,1,1,4,-2,1757008754181897401
0,4.450725555,20250904135914182,None,-2,-1,-1,-2,-1,-2,-1,-4,1757008754182045936
0,4.465625286,20250904135914197,None,-2,0,0,-2,0,0,-1,-4,1757008754196863651
0,4.465717554,20250904135914197,None,-1,-3,2,-2,-3,-1,-2,0,1757008754197012424
0,4.47323656,20250904135914204,None,-5,1,-1,1,2,0,-5,-1,1757008754204524517
0,4.473315477,20250904135914204,None,2,-1,1,1,-1,1,5,4,1757008754204634904
0,4.480996847,20250904135914212,None,-2,-2,-2,-1,-1,1,-1,-5,1757008754211979866
0,4.481179475,20250904135914212,None,-4,-1,-1,0,2,5,-2,0,1757008754212099790
0,4.496138811,20250904135914227,None,-3,-2,0,-2,-3,-11,-2,-1,1757008754227045297
0,4.496345043,20250904135914227,None,1,1,1,-2,-3,1,2,1,1757008754227197408
0,4.503459453,20250904135914234,None,3,1,-1,0,4,2,-1,0,1757008754234508752
0,4.503626108,20250904135914235,None,-1,-3,0,1,-2,1,-2,-1,1757008754234623432
0,4.51097536,20250904135914242,None,-1,0,3,1,1,-6,-2,0,1757008754242009639
0,4.511152505,20250904135914242,None,-3,1,0,8,4,5,2,-4,1757008754242120504
0,4.526312828,20250904135914257,None,-1,-1,-5,-20,-20,-4,-5,-1,1757008754257165193
0,4.52651596,20250904135914257,None,-1,3,2,2,1,-1,-3,1,1757008754257388830
0,4.533792972,20250904135914265,None,2,1,0,1,2,-2,1,5,1757008754264683246
0,4.53396368,20250904135914265,None,1,-1,0,1,2,-1,-5,-8,1757008754264863729
0,4.541692257,20250904135914273,None,0,0,0,1,-3,0,-4,-1,1757008754272373199
0,4.5419168469999995,20250904135914273,None,-3,-2,-2,-2,-1,0,-5,2,1757008754272588729
0,4.556356668,20250904135914287,None,-2,4,-3,-2,-2,-4,1,-3,1757008754287208795
0,4.556537866,20250904135914288,None,1,2,3,0,-1,0,2,-1,1757008754287426710
0,4.563635826,20250904135914295,None,1,-2,2,2,3,4,0,-3,1757008754294574499
0,4.563836097,20250904135914295,None,1,-2,0,0,-1,0,-1,4,1757008754294741392
0,4.571000814,20250904135914302,None,-2,-1,-3,-2,0,2,-2,-4,1757008754302001476
0,4.57117629,20250904135914302,None,1,-1,-2,-2,4,-3,2,-1,1757008754302119731
0,4.58605051,20250904135914317,None,0,3,-1,2,-3,-1,-1,3,1757008754317034959
0,4.586224317,20250904135914317,None,2,1,-2,1,2,-2,-2,2,1757008754317188262
0,4.593456506,20250904135914324,None,-3,-1,-1,-1,1,1,-1,2,1757008754324498414
0,4.593622684,20250904135914325,None,0,-2,-1,-3,-6,-4,1,1,1757008754324609518
0,4.601052761,20250904135914332,None,0,-1,-1,0,-3,0,-1,-2,1757008754332002639
0,4.601245403,20250904135914332,None,0,1,-1,1,-3,-2,-3,-2,1757008754332133531
0,4.616038084,20250904135914347,None,-1,-1,0,0,2,2,0,-2,1757008754347001791
0,4.616212606,20250904135914347,None,-2,0,-1,-2,-4,0,-1,-3,1757008754347132205
0,4.623408556,20250904135914354,None,1,0,1,1,-2,1,5,4,1757008754354480981
0,4.623572588,20250904135914355,None,-1,0,-3,-7,-2,-2,-1,-7,1757008754354579210
0,4.63102436,20250904135914362,None,-2,-1,2,0,-1,-3,1,-4,1757008754362013339
0,4.6312010279999996,20250904135914362,None,-2,-3,-1,-3,0,-2,0,1,1757008754362136602
0,4.646024227,20250904135914377,None,-3,-1,-1,-1,0,-2,-2,-2,1757008754377004861
0,4.646199464,20250904135914377,None,0,1,-2,-1,-1,1,-3,1,1757008754377151012
0,4.65348649,20250904135914384,None,-2,-2,0,-3,-2,-4,-2,-1,1757008754384507417
0,4.653657913,20250904135914385,None,0,-3,0,1,0,3,4,1,1757008754384638309
0,4.66096735,20250904135914392,None,-1,-1,1,6,2,0,-3,-1,1757008754391960144
0,4.661145687,20250904135914392,None,0,1,0,-21,-5,1,-5,-2,1757008754392070293
0,4.676015615,20250904135914407,None,0,0,-1,1,-1,-2,-1,-1,1757008754406982898
0,4.676192045,20250904135914407,None,0,-1,-3,4,-2,2,-4,-3,1757008754407120943
0,4.683473825,20250904135914414,None,1,0,-3,1,0,-4,2,-4,1757008754414563655
0,4.683569669,20250904135914415,None,-4,-2,-2,-4,-7,-3,-4,1,1757008754414689540
0,4.691072702,20250904135914422,None,1,-2,-1,-3,1,1,-1,-2,1757008754422055959
0,4.691175222,20250904135914422,None,0,3,2,6,3,1,2,0,1757008754422180652
0,4.706042528,20250904135914437,None,-2,0,-1,-3,1,0,0,-1,1757008754436978101
0,4.706229209,20250904135914437,None,3,0,3,0,0,4,-1,2,1757008754437332153
0,4.713371992,20250904135914444,None,-2,0,-1,-3,1,-10,-1,-1,1757008754444530725
0,4.713492393,20250904135914444,None,-1,0,-2,0,2,-1,-1,2,1757008754444661855
0,4.720995426,20250904135914452,None,-2,-2,-1,-1,-3,-1,-5,-2,1757008754452190637
0,4.721077919,20250904135914452,None,1,-4,-1,0,-5,-2,-4,-7,1757008754452412128
0,4.744606971,20250904135914476,None,0,-2,0,0,-1,1,1,1,1757008754475507736
0,4.744716882,20250904135914476,None,-3,-1,-1,5,-2,-4,0,1,1757008754475718975
0,4.74520564,20250904135914476,None,-2,0,1,-2,4,0,2,1,1757008754476295232
0,4.745278835,20250904135914476,None,0,-1,-1,-3,-1,-1,-2,1,1757008754476423978
0,4.751051664,20250904135914482,None,-1,-5,0,-7,-8,0,2,0,1757008754482170104
0,4.751124858,20250904135914482,None,-3,-2,-1,-3,-3,-1,-2,0,1757008754482364416
0,4.765737772,20250904135914497,None,3,0,-3,2,-1,1,0,1,1757008754497015476
0,4.765823841,20250904135914497,None,-4,-4,-1,-2,-2,-1,-2,-4,1757008754497157096
0,4.773587465,20250904135914505,None,1,-2,-1,-1,-1,-1,-3,1,1757008754504722118
0,4.773684978,20250904135914505,None,-1,-6,-4,2,0,-1,-1,1,1757008754504921913
0,4.781337976,20250904135914512,None,-2,0,0,0,-3,0,1,0,1757008754512192010
0,4.781527519,20250904135914513,None,-1,-2,0,-1,-1,0,-1,-1,1757008754512405395
0,4.796273708,20250904135914527,None,3,-1,-3,-4,0,-1,0,-1,1757008754527182102
0,4.796440124,20250904135914527,None,2,0,0,-4,-5,-1,-1,1,1757008754527389764
0,4.803631544,20250904135914535,None,1,-3,-3,0,5,4,-9,-5,1757008754534651041
0,4.803802013,20250904135914535,None,-1,1,-2,7,1,0,0,-2,1757008754534802198
0,4.811382532,20250904135914542,None,1,-1,-3,-2,0,-5,-2,-2,1757008754542294979
0,4.811570882,20250904135914543,None,-3,0,-3,-12,-5,5,1,2,1757008754542469263
0,4.826443672,20250904135914557,None,-1,-2,-4,2,-1,0,-2,-5,1757008754557333707
0,4.82662487,20250904135914558,None,-4,-1,-2,5,2,-2,0,0,1757008754557514667
0,4.833843946,20250904135914565,None,1,-3,-1,-1,2,1,2,-3,1757008754564731121
0,4.83398962,20250904135914565,None,1,2,0,-1,-8,1,-3,-3,1757008754564907312
0,4.841350555,20250904135914572,None,-1,0,-3,-1,0,-4,-1,2,1757008754572271823
0,4.841520786,20250904135914573,None,-4,-4,0,-3,2,-2,1,0,1757008754572445392
0,4.856448888,20250904135914587,None,0,2,-2,-1,2,-2,-5,-3,1757008754587343215
0,4.856625795,20250904135914588,None,-1,-1,1,0,0,0,-1,3,1757008754587525606
0,4.86388874,20250904135914595,None,0,-1,0,-4,-8,-1,0,2,1757008754594768285
0,4.864075183,20250904135914595,None,-2,-2,1,-3,-4,-4,0,-4,1757008754594951391
0,4.871369361,20250904135914602,None,0,-1,-2,1,-3,0,-3,-6,1757008754602274417
0,4.871540546,20250904135914603,None,0,2,0,2,0,-2,0,1,1757008754602449893
0,4.886467695,20250904135914617,None,-1,-4,-1,-2,1,0,2,0,1757008754617314577
0,4.886667966,20250904135914618,None,2,1,-1,2,1,2,-4,1,1757008754617497682
0,4.893640518,20250904135914625,None,-1,-2,0,3,3,-3,0,2,1757008754624664783
0,4.893798589,20250904135914625,None,-3,-1,-1,0,1,3,3,0,1757008754624814510
0,4.901385307,20250904135914632,None,-4,-1,-4,-4,-6,-1,4,1,1757008754632272243
0,4.90161395,20250904135914633,None,0,0,0,1,4,4,0,1,1757008754632458448
0,4.916430473,20250904135914647,None,0,-1,-2,0,2,-4,1,1,1757008754647314786
0,4.916637897,20250904135914648,None,1,-1,-2,0,0,8,0,-6,1757008754647498846
0,4.923896074,20250904135914655,None,-1,-3,-1,2,-3,-11,-3,-2,1757008754654768466
0,4.924409389,20250904135914655,None,-2,2,-4,-2,-2,-1,-2,2,1757008754654952049
0,4.93125534,20250904135914662,None,4,-1,-2,0,0,-3,-3,-2,1757008754662256479
0,4.931419134,20250904135914662,None,-3,1,1,-1,1,1,1,0,1757008754662429809
0,4.946186065,20250904135914677,None,-3,-1,-2,-3,-6,-1,-1,-4,1757008754677304506
0,4.946277618,20250904135914677,None,1,0,-1,6,4,-1,0,-1,1757008754677487611
0,4.953513622,20250904135914684,None,1,1,-1,-3,2,-4,-3,0,1757008754684689044
0,4.953583002,20250904135914685,None,0,1,-2,-11,-5,-3,3,1,1757008754684870481
0,4.961152553,20250904135914692,None,-2,-1,-4,0,-5,-3,-5,-1,1757008754692308425
0,4.961220979,20250904135914692,None,-1,0,-2,3,1,0,-1,0,1757008754692498683
0,4.976196289,20250904135914707,None,-2,-1,-1,2,2,3,-1,0,1757008754707292079
0,4.976326704,20250904135914707,None,-3,-3,-1,1,-4,-11,-2,-1,1757008754707475423
0,4.983598709,20250904135914715,None,4,0,0,0,-1,0,-4,0,1757008754714757442
0,4.983658313,20250904135914715,None,-1,2,0,-1,-1,0,1,-5,1757008754714934587
0,4.991128683,20250904135914722,None,-1,0,0,-3,-2,-5,-2,-2,1757008754722294807
0,4.991196632,20250904135914722,None,0,-2,-3,0,-1,-1,-1,3,1757008754722467899
0,5.005634546,20250904135914737,None,-1,2,0,0,2,7,0,2,1757008754736934661
0,5.005676984,20250904135914737,None,-1,-4,-1,1,3,-3,-3,-4,1757008754737018108
0,5.013234615,20250904135914744,None,1,-2,0,0,-1,-2,0,-3,1757008754744529008
0,5.013273477,20250904135914744,None,-1,0,-1,-2,2,-2,3,-1,1757008754744650125
0,5.020748615,20250904135914752,None,-2,-1,-3,-3,-4,2,0,0,1757008754752058029
0,5.020876169,20250904135914752,None,-2,-3,0,-2,-2,-3,1,-1,1757008754752184391
0,5.036339521,20250904135914767,None,0,-2,-2,0,2,3,2,3,1757008754767262935
0,5.036494016,20250904135914767,None,-1,-2,-1,0,-2,-6,-4,-6,1757008754767425537
0,5.043862819,20250904135914775,None,-2,-4,-4,-1,-3,-4,1,6,1757008754774747133
0,5.044037342,20250904135914775,None,-1,2,-3,0,4,2,-2,0,1757008754774923801
0,5.051390409,20250904135914782,None,-1,-2,0,3,1,1,0,-1,1757008754782287597
0,5.051551342,20250904135914783,None,-1,-5,1,-3,-2,-5,-3,-1,1757008754782468795
0,5.066420555,20250904135914797,None,-2,-1,1,-3,-8,0,4,-2,1757008754797307491
0,5.066598177,20250904135914798,None,0,-1,0,-7,-2,-1,-4,-1,1757008754797491550
0,5.073863983,20250904135914805,None,5,2,-1,1,3,-1,4,-3,1757008754804693698
0,5.074033737,20250904135914805,None,-1,2,-1,2,-1,-2,-1,1,1757008754804865598
0,5.081308364,20250904135914812,None,-6,-1,1,-1,0,-1,1,0,1757008754812170028
0,5.081489086,20250904135914812,None,-4,-1,-4,-2,-2,-3,-3,-4,1757008754812382221
0,5.096892118,20250904135914828,None,1,2,-1,7,0,0,-2,2,1757008754827586889
0,5.097096681,20250904135914828,None,0,-2,-1,-15,-2,2,-1,-1,1757008754827802896
0,5.104325771,20250904135914835,None,0,-1,-2,1,-2,0,-2,-3,1757008754835010290
0,5.104515075,20250904135914835,None,1,3,-1,1,-2,0,0,1,1757008754835256338
0,5.111700058,20250904135914843,None,0,-1,1,1,-4,0,0,-1,1757008754842389822
0,5.111888885,20250904135914843,None,0,2,-1,0,-1,-3,-1,4,1757008754842589616
0,5.127154111,20250904135914858,None,-4,-1,0,-3,-2,8,-1,-3,1757008754857797622
0,5.127370119,20250904135914858,None,-2,-2,-4,-2,1,-9,-7,0,1757008754858022451
0,5.134166717,20250904135914865,None,-3,-3,2,0,-1,-4,5,-2,1757008754864827632
0,5.134390115,20250904135914865,None,1,0,0,-1,0,1,2,0,1757008754865034341
0,5.142234325,20250904135914873,None,-2,-2,2,1,0,3,-2,-2,1757008754872793912
0,5.142446041,20250904135914873,None,-3,1,1,-3,0,1,-4,-4,1757008754873009681
0,5.156559228,20250904135914888,None,-1,0,-1,1,-4,-2,-3,-2,1757008754887389659
0,5.156757354,20250904135914888,None,-2,0,-2,-4,2,1,2,-5,1757008754887597799
0,5.163828611,20250904135914895,None,-1,-3,2,0,1,-2,3,-2,1757008754894765853
0,5.164008379,20250904135914895,None,-2,0,1,0,-3,-4,1,1,1757008754894953012
0,5.171407699,20250904135914902,None,0,-1,-2,0,-1,0,-5,1,1757008754902347326
0,5.17163825,20250904135914903,None,0,-1,-1,-1,-3,-1,-3,0,1757008754902541399
0,5.186369657,20250904135914917,None,-2,4,-1,1,4,-7,-2,-3,1757008754917322635
0,5.186547041,20250904135914918,None,1,1,-1,0,-3,-4,0,8,1757008754917504072
0,5.193756818,20250904135914925,None,-2,-3,0,-1,-1,0,-1,-11,1757008754924747705
0,5.194242477,20250904135914925,None,-1,1,2,1,-3,0,-2,-1,1757008754924932003
0,5.201295137,20250904135914932,None,-3,-2,0,-5,-3,1,-3,2,1757008754932293415
0,5.201461553,20250904135914932,None,3,2,-2,-2,-1,-2,-1,2,1757008754932466506
0,5.216380357,20250904135914947,None,2,-3,-1,1,-1,0,-3,-2,1757008754947360515
0,5.216557979,20250904135914948,None,-2,-3,-2,-1,0,-4,0,0,1757008754947542190
0,5.223794698,20250904135914955,None,0,-1,-3,-7,-6,1,3,0,1757008754954766988
0,5.223961591,20250904135914955,None,-5,-3,-3,1,0,-1,-1,-6,1757008754954950809
0,5.231350898,20250904135914962,None,-3,-1,-3,-1,0,0,0,-3,1757008754962327003
0,5.231528282,20250904135914963,None,-2,-1,-4,2,-5,-3,0,0,1757008754962512016
0,5.24640274,20250904135914977,None,-3,-5,-1,8,1,-3,-5,0,1757008754977347373
0,5.246596098,20250904135914978,None,-2,-2,-1,-3,2,2,-2,1,1757008754977540254
0,5.2537550920000005,20250904135914985,None,0,-1,-3,-15,-8,-2,4,1,1757008754984724760
0,5.253974437,20250904135914985,None,1,0,-3,4,0,-4,1,0,1757008754984911203
0,5.268875598,20250904135915000,None,4,0,0,2,-1,-2,-1,-1,1757008754999812602
0,5.269038915,20250904135915000,None,0,1,-4,2,5,4,2,0,1757008754999999523
0,5.276288747,20250904135915007,None,2,-2,1,4,0,2,-1,1,1757008755007279157
0,5.276476621,20250904135915007,None,-4,-3,2,-4,-3,-2,-2,-3,1757008755007457733
0,5.283723592,20250904135915015,None,-2,-2,-2,1,-2,-2,-10,1,1757008755014726161
0,5.283947229,20250904135915015,None,-3,-2,-4,-1,-3,-5,6,-4,1757008755014901399
0,5.298609495,20250904135915030,None,-1,1,-1,-3,0,6,1,-2,1757008755029616117
0,5.298783063,20250904135915030,None,0,-2,0,0,-4,-6,-3,0,1757008755029768228
0,5.305301904,20250904135915036,None,1,-4,0,0,0,0,-3,-4,1757008755036687374
0,5.305336952,20250904135915036,None,-3,-1,1,-1,0,2,0,1,1757008755036764144
0,5.3129684919999995,20250904135915044,None,0,2,1,3,2,-2,-4,-4,1757008755044299364
0,5.31303811,20250904135915044,None,-3,-2,-2,0,1,0,-1,-2,1757008755044376373
0,5.327970028,20250904135915059,None,0,-1,-2,-5,-6,-1,2,-2,1757008755059279203
0,5.328015565,20250904135915059,None,-2,-2,-4,0,2,-1,-2,3,1757008755059354782
0,5.335524797,20250904135915066,None,-1,2,-3,-3,4,-5,0,-1,1757008755066848278
0,5.335583686,20250904135915067,None,2,-2,0,-3,-1,6,0,1,1757008755066950559
0,5.343082904,20250904135915074,None,-3,0,-3,-1,-5,-11,-3,0,1757008755074396848
0,5.343239069,20250904135915074,None,-1,-1,-2,2,-1,-7,-2,3,1757008755074520826
0,5.358857154,20250904135915090,None,3,-3,-5,-1,-2,-3,-3,-9,1757008755089761495
0,5.359052896,20250904135915090,None,0,-2,-3,1,-5,-3,-4,-3,1757008755089969158
0,5.36634922,20250904135915097,None,-1,-1,-3,-2,4,0,2,0,1757008755097270965
0,5.366544008,20250904135915098,None,-2,-2,0,-3,-7,0,0,0,1757008755097468614
0,5.374309778,20250904135915105,None,-1,-1,0,-2,-1,0,1,4,1757008755104910612
0,5.374531507,20250904135915106,None,0,-1,-1,0,2,2,-4,-3,1757008755105127096
0,5.389355182,20250904135915120,None,-4,-2,1,3,2,1,1,-3,1757008755119846105
0,5.389605999,20250904135915121,None,1,-1,-2,-1,1,-4,0,3,1757008755120068311
0,5.396338462,20250904135915127,None,1,-1,-4,-4,-1,-1,-3,-2,1757008755127129793
0,5.396555185,20250904135915128,None,-1,3,1,8,3,1,-1,0,1757008755127293109
0,5.404135465,20250904135915135,None,-1,0,-4,-13,-2,0,0,-3,1757008755134839773
0,5.404325723,20250904135915135,None,0,-1,0,0,0,-1,-1,3,1757008755135020256
0,5.419125318,20250904135915150,None,1,-2,-3,2,-2,-4,-1,-4,1757008755149682283
0,5.419381141,20250904135915150,None,-1,1,0,1,-2,1,1,-3,1757008755149872541
0,5.42611289,20250904135915157,None,-3,-3,-3,-1,-1,-1,0,-4,1757008755156955957
0,5.42628932,20250904135915157,None,0,-4,-2,1,1,0,-4,-4,1757008755157054185
0,5.433604717,20250904135915165,None,-2,-3,-2,0,1,-1,-1,2,1757008755164480447
0,5.43379879,20250904135915165,None,-1,0,-3,-1,0,3,2,1,1757008755164580583
0,5.448723316,20250904135915180,None,2,0,0,0,-1,-1,1,-1,1757008755179542064
0,5.448924541,20250904135915180,None,-2,0,3,-4,0,1,-2,1,1757008755179646253
0,5.464389562,20250904135915195,None,2,4,-2,0,-4,1,-1,3,1757008755195181369
0,5.464611053,20250904135915196,None,1,-1,0,-2,2,-1,0,1,1757008755195252418
0,5.465083122,20250904135915196,None,1,0,-1,-3,-2,-2,-1,0,1757008755195960998
0,5.465262889,20250904135915196,None,-3,-2,1,-1,2,-1,-6,-5,1757008755196063280
0,5.479025602,20250904135915210,None,-3,-1,1,-1,-3,-1,3,2,1757008755209759950
0,5.479200124,20250904135915210,None,2,-3,-4,-2,4,3,1,-2,1757008755209965705
0,5.486533165,20250904135915218,None,-3,-2,1,0,3,-1,-1,0,1757008755217132568
0,5.486706018,20250904135915218,None,-1,-1,-3,-4,-3,1,0,-2,1757008755217284679
0,5.493290901,20250904135915224,None,-2,-3,2,1,0,-2,-7,-3,1757008755224464416
0,5.493338346,20250904135915224,None,2,-2,1,0,1,-1,0,4,1757008755224589347
0,5.508270263,20250904135915239,None,-3,-2,-2,-1,-2,-2,-3,-8,1757008755239395380
0,5.508373737,20250904135915239,None,-4,-3,-2,-1,0,0,-2,-6,1757008755239515304
0,5.515754699,20250904135915247,None,-2,1,1,0,0,1,-1,0,1757008755246815919
0,5.515865802,20250904135915247,None,-1,-1,-2,0,1,-3,-2,1,1757008755246939897
0,5.52319765,20250904135915254,None,1,0,-1,-2,-4,0,-1,1,1757008755254395484
0,5.523281574,20250904135915254,None,0,-1,1,-4,0,-1,0,-2,1757008755254512548
0,5.538236141,20250904135915269,None,2,-1,-3,-1,-7,-2,-3,3,1757008755269323587
0,5.538316965,20250904135915269,None,-1,-1,-2,-1,1,3,0,1,1757008755269427776
0,5.545727014,20250904135915277,None,-2,1,-1,-1,-2,-3,-4,-2,1757008755276819229
0,5.545923233,20250904135915277,None,0,0,-2,-1,1,-2,-1,2,1757008755276920795
0,5.553280592,20250904135915284,None,-1,-1,-3,8,-1,-5,-3,-2,1757008755284349679
0,5.553377866,20250904135915284,None,1,-2,1,-3,5,1,1,0,1757008755284458398
0,5.5686352249999995,20250904135915300,None,-1,-1,-1,-10,-8,-1,-2,-2,1757008755299422979
0,5.568878412,20250904135915300,None,0,1,-3,3,-1,1,-2,1,1757008755299528598
0,5.576228141,20250904135915307,None,0,1,-2,-4,0,0,-1,-2,1757008755307054519
0,5.576410532,20250904135915307,None,-2,-4,-2,2,1,1,1,0,1757008755307158470
0,5.583680868,20250904135915315,None,-1,-1,0,-1,-2,-4,-2,0,1757008755314557075
0,5.58387947,20250904135915315,None,-3,2,-1,-1,-1,2,-4,-1,1757008755314654350
0,5.598689079,20250904135915330,None,2,-1,1,1,-1,-2,-1,1,1757008755329536199
0,5.598912,20250904135915330,None,-3,2,-3,0,-2,-3,2,-3,1757008755329631567
0,5.60668087,20250904135915338,None,-3,0,-1,1,-2,1,-5,-2,1757008755337360620
0,5.606912612,20250904135915338,None,1,0,-1,-4,-1,1,5,-3,1757008755337558269
0,5.614030838,20250904135915345,None,4,-1,-1,2,-4,-4,-3,0,1757008755344803810
0,5.614204645,20250904135915345,None,-1,-1,-3,-3,-2,-1,-2,0,1757008755344980001
0,5.629066705,20250904135915360,None,1,2,-1,2,1,3,1,-1,1757008755359798669
0,5.629264593,20250904135915360,None,1,-1,-2,-3,-4,-3,-3,-1,1757008755359990358
0,5.636737823,20250904135915368,None,-5,-1,1,2,0,-1,-1,1,1757008755367352247
0,5.636949539,20250904135915368,None,-1,0,0,-4,0,-2,-1,-8,1757008755367553472
0,5.644371748,20250904135915375,None,3,-2,-3,1,2,2,1,0,1757008755374983072
0,5.644578456,20250904135915376,None,-2,3,2,-3,2,-2,0,-1,1757008755375198364
0,5.659028291,20250904135915390,None,3,-5,0,-1,2,-1,-1,-1,1757008755389763355
0,5.659203767,20250904135915390,None,-1,-1,-1,-5,-4,0,-2,-5,1757008755389957666
0,5.666519165,20250904135915398,None,0,-1,-2,2,0,-3,0,0,1757008755397248983
0,5.666719913,20250904135915398,None,1,-1,-2,0,-3,0,1,0,1757008755397448301
0,5.674034357,20250904135915405,None,0,-1,-1,0,4,2,-5,1,1757008755404732227
0,5.674209594,20250904135915405,None,-1,-4,-1,0,4,2,2,-4,1757008755404915809
0,5.689320325,20250904135915420,None,2,0,1,2,-2,-1,-1,0,1757008755419928073
0,5.689517736,20250904135915420,None,-1,0,2,3,6,-3,-3,1,1757008755420136928
0,5.696882486,20250904135915428,None,-4,0,-1,-2,-5,-3,0,1,1757008755427502393
0,5.697080612,20250904135915428,None,0,0,-3,-4,0,4,0,-3,1757008755427707433
0,5.703992843,20250904135915435,None,-2,-2,-1,-1,-1,1,2,-2,1757008755434704542
0,5.704187631,20250904135915435,None,-2,-2,0,1,1,-1,0,0,1757008755434891462
0,5.719331502,20250904135915450,None,0,-3,-1,-5,-4,1,-1,-3,1757008755449854612
0,5.719577074,20250904135915451,None,0,-1,-1,1,2,1,2,3,1757008755450086593
0,5.726622343,20250904135915458,None,-1,0,-1,8,0,2,2,2,1757008755457293272
0,5.726833343,20250904135915458,None,-4,-3,-2,-13,-5,-3,-5,-5,1757008755457488059
0,5.734217882,20250904135915465,None,-2,0,-2,-5,-4,-2,1,-3,1757008755464875221
0,5.734414815,20250904135915465,None,-4,-5,1,1,0,-2,-2,0,1757008755465092182
0,5.7495718,20250904135915481,None,-3,-1,0,-3,0,7,-2,3,1757008755479995250
0,5.750110149,20250904135915481,None,1,-2,-1,-1,0,-6,1,-3,1757008755480292081
0,5.756994009,20250904135915488,None,-1,-3,-4,-2,-3,-4,-4,0,1757008755487597942
0,5.7571616169999995,20250904135915488,None,-2,-1,-3,0,-1,1,0,3,1757008755487820863
0,5.771842479,20250904135915503,None,-3,-1,-1,-2,-1,1,-4,-1,1757008755502557754
0,5.772011518,20250904135915503,None,0,-3,2,-2,1,-7,0,1,1757008755502804756
0,5.778851509,20250904135915510,None,1,-1,-3,-5,-2,1,0,-1,1757008755509622573
0,5.779016494,20250904135915510,None,1,-1,-1,1,-1,-1,-3,0,1757008755509790182
0,5.786487341,20250904135915517,None,-2,-3,1,-1,-3,-2,-2,-3,1757008755517196178
0,5.786755561,20250904135915518,None,4,-2,0,-2,1,0,8,-1,1757008755517419338
0,5.793400049,20250904135915524,None,1,0,-1,-1,-1,1,-2,-1,1757008755524288177
0,5.793547391,20250904135915525,None,2,-1,-1,0,-2,-2,-2,-1,1757008755524383068
0,5.808808565,20250904135915540,None,0,-2,-1,-3,-1,0,0,1,1757008755539675712
0,5.808969974,20250904135915540,None,1,3,2,1,0,1,2,6,1757008755539863824
0,5.816350936,20250904135915547,None,-2,-3,1,0,-1,-4,-8,-13,1757008755547066688
0,5.816545724,20250904135915548,None,-3,-3,-2,-2,-2,-1,-3,-5,1757008755547279119
0,5.8236484520000005,20250904135915555,None,2,-2,2,0,7,-2,2,0,1757008755554559707
0,5.823819398,20250904135915555,None,-2,-4,-4,0,0,-2,0,0,1757008755554726839
0,5.8386037349999995,20250904135915570,None,-2,0,1,-5,-5,-3,1,-2,1757008755569597482
0,5.838746786,20250904135915570,None,0,0,0,0,1,-1,-1,0,1757008755569755077
0,5.846418619,20250904135915577,None,0,-3,1,1,2,3,-1,-1,1757008755577155828
0,5.846599102,20250904135915578,None,0,-1,-5,1,-2,-5,-1,-4,1757008755577395915
0,5.853574276,20250904135915585,None,0,2,-1,2,-1,0,0,-2,1757008755584640741
0,5.8536465159999995,20250904135915585,None,0,-2,1,-2,2,-2,-1,3,1757008755584813833
0,5.868648767,20250904135915600,None,-4,-2,-4,-2,2,1,0,-4,1757008755599691867
0,5.86872816,20250904135915600,None,1,1,1,-1,-4,1,-2,1,1757008755599845886
0,5.8763237,20250904135915607,None,-2,-2,-1,1,-2,2,3,1,1757008755607123613
0,5.876502275,20250904135915607,None,-1,-4,-1,1,2,0,-2,-5,1757008755607285022
0,5.883599281,20250904135915615,None,-4,-2,4,10,0,-3,0,-1,1757008755614458560
0,5.883796215,20250904135915615,None,0,-1,-2,-5,-1,5,0,-3,1757008755614558696
0,5.898509264,20250904135915629,None,-4,0,-1,-6,-5,0,0,-4,1757008755629455566
0,5.89863944,20250904135915630,None,-3,1,-4,1,-1,-2,-2,2,1757008755629575014
0,5.906090498,20250904135915637,None,-1,-2,-1,1,-1,-1,0,6,1757008755636925697
0,5.906254053,20250904135915637,None,-2,0,-2,1,0,-5,-5,-6,1757008755637020587
0,5.913625717,20250904135915645,None,2,2,0,-1,-2,3,3,0,1757008755644461154
0,5.913829565,20250904135915645,None,-1,-3,-1,-1,-1,-3,-5,-2,1757008755644563913
0,5.928662061,20250904135915660,None,-2,-1,-1,0,1,0,1,4,1757008755659501791
0,5.928876638,20250904135915660,None,-1,-4,-1,-3,-1,-1,-5,-2,1757008755659607887
0,5.936174392,20250904135915667,None,1,1,0,3,-3,0,-2,1,1757008755666970252
0,5.936355829,20250904135915667,None,-2,0,0,-1,1,-1,0,-3,1757008755667067289
0,5.943573236,20250904135915675,None,-3,-2,0,-1,-5,-3,-2,-4,1757008755674453020
0,5.943757772,20250904135915675,None,-3,0,-1,-1,0,-2,0,0,1757008755674548149
0,5.95869255,20250904135915690,None,-1,1,1,-3,1,6,0,9,1757008755689513206
0,5.9589498039999995,20250904135915690,None,0,-1,-2,-1,-1,-7,-4,-5,1757008755689624786
0,5.966143846,20250904135915697,None,-1,-2,-2,-1,-6,-8,0,-5,1757008755696969509
0,5.96631813,20250904135915697,None,-3,1,-1,-2,1,2,8,-1,1757008755697064638
0,5.973522186,20250904135915705,None,1,-2,-1,1,2,0,-3,1,1757008755704425334
0,5.973710775,20250904135915705,None,-3,0,-1,-1,-2,1,0,-1,1757008755704516172
0,5.988990545,20250904135915720,None,-3,1,-2,-2,2,0,0,2,1757008755719732761
0,5.989164114,20250904135915720,None,-1,1,-1,-2,0,3,-1,1,1757008755719913005
0,5.996232748,20250904135915727,None,-1,-2,-2,2,0,-6,1,4,1757008755727024555
0,5.996437549,20250904135915727,None,-3,-2,-2,-3,0,-1,0,-5,1757008755727144718
0,6.003609657,20250904135915735,None,-2,-2,1,-2,1,1,1,1,1757008755734471321
0,6.003815889,20250904135915735,None,-2,3,1,-1,5,2,-4,-1,1757008755734570741
0,6.018577575,20250904135915750,None,1,0,0,-5,-12,-7,-3,1,1757008755749523639
0,6.018729686,20250904135915750,None,-2,-2,-3,1,-3,-3,1,-2,1757008755749663591
0,6.025770902,20250904135915757,None,0,-2,-2,0,7,0,-1,-1,1757008755756888151
0,6.025855302,20250904135915757,None,-1,-1,-1,1,5,2,-1,0,1757008755756989955
0,6.03333354,20250904135915764,None,4,0,-3,-6,-5,1,3,-3,1757008755764456987
0,6.033403635,20250904135915764,None,4,-3,-1,-1,3,0,-3,0,1757008755764559507
0,6.048581838,20250904135915780,None,-1,2,-1,0,-3,-1,0,3,1757008755779637575
0,6.048669815,20250904135915780,None,-3,-4,0,1,0,-1,-2,-1,1757008755779790163
0,6.05593276,20250904135915787,None,-1,-3,0,-3,0,-1,1,2,1757008755787054300
0,6.056006193,20250904135915787,None,3,1,-1,7,1,-3,-1,2,1757008755787165164
0,6.063587188,20250904135915795,None,0,-1,2,0,0,5,2,0,1757008755794632673
0,6.063688278,20250904135915795,None,-5,-4,-4,-16,-7,-3,-3,-3,1757008755794806718
0,6.078510046,20250904135915809,None,-2,1,-1,8,-1,-1,-3,-1,1757008755809557199
0,6.078623056,20250904135915810,None,4,2,-1,3,1,0,4,0,1757008755809689760
0,6.086031198,20250904135915817,None,0,-1,-2,-1,-1,0,1,0,1757008755817056655
0,6.086147785,20250904135915817,None,0,0,-3,3,5,1,-3,3,1757008755817191362
0,6.093415498,20250904135915824,None,-5,-1,-2,3,-4,-4,1,2,1757008755824547767
0,6.093500375,20250904135915824,None,-1,-1,-1,-1,0,-2,-3,-4,1757008755824659347
0,6.108531713,20250904135915840,None,0,-3,-1,0,-5,-3,-7,2,1757008755839594125
0,6.108650446,20250904135915840,None,0,-3,-2,-1,0,1,7,0,1757008755839714288
0,6.115989923,20250904135915847,None,-1,1,-5,-7,-4,1,2,-2,1757008755847078323
0,6.116076469,20250904135915847,None,-2,1,0,-2,-2,1,0,4,1757008755847195625
0,6.123419046,20250904135915854,None,-1,-1,0,2,-2,0,-5,-3,1757008755854542493
0,6.12350583,20250904135915854,None,-1,-3,-1,-3,-4,-2,-1,-7,1757008755854657649
0,6.138458252,20250904135915869,None,4,3,1,-1,3,1,-2,0,1757008755869574069
0,6.138565778,20250904135915870,None,-3,-4,2,-3,-2,-3,7,-1,1757008755869687318
0,6.145928621,20250904135915877,None,-1,0,2,2,-1,1,3,1,1757008755877025842
0,6.146023988,20250904135915877,None,1,-1,1,-2,-2,1,-3,3,1757008755877147436
0,6.153397321,20250904135915884,None,-2,-5,-1,-1,-1,-1,-1,-3,1757008755884539127
0,6.153487444,20250904135915884,None,2,-2,-1,0,1,0,-2,-3,1757008755884650707
0,6.168535232,20250904135915900,None,-2,2,2,0,-1,-2,-1,2,1757008755899584770
0,6.168648958,20250904135915900,None,-1,2,-1,0,0,3,-3,1,1757008755899713516
0,6.175965786,20250904135915907,None,1,-1,0,-1,0,3,-2,0,1757008755907056093
0,6.176056146,20250904135915907,None,-1,1,1,1,2,-7,1,4,1757008755907169818
0,6.183413505,20250904135915914,None,-3,-1,-3,0,-1,0,-1,-4,1757008755914548635
0,6.183503627,20250904135915914,None,-3,-1,-3,-2,-6,-1,-1,-7,1757008755914658546
0,6.198503494,20250904135915929,None,-1,-3,0,-2,5,-1,-1,1,1757008755929569005
0,6.19860506,20250904135915930,None,1,-3,-1,1,1,0,-2,1,1757008755929689645
0,6.205833911,20250904135915937,None,1,1,-2,-1,0,-1,3,1,1757008755936992883
0,6.205925464,20250904135915937,None,3,2,-2,1,0,-2,-4,0,1757008755937106370
0,6.220945596,20250904135915952,None,-1,-2,-4,1,-3,-2,-8,-1,1757008755952035427
0,6.221065044,20250904135915952,None,0,3,0,-2,3,4,0,1,1757008755952153682
0,6.228434085,20250904135915959,None,0,-1,0,-2,-6,-5,-3,-3,1757008755959554195
0,6.228528976,20250904135915960,None,-2,0,0,1,0,-2,-2,-1,1757008755959669589
0,6.235964298,20250904135915967,None,0,-1,0,3,2,0,-1,-3,1757008755967048168
0,6.236055135,20250904135915967,None,0,-1,0,6,-2,-2,2,1,1757008755967159986
0,6.251340627,20250904135915982,None,-3,1,-2,-20,-7,-3,-2,0,1757008755982085943
0,6.251583337,20250904135915983,None,-3,-2,-2,-1,-1,1,-1,-1,1757008755982223510
0,6.258809566,20250904135915990,None,4,0,4,2,-1,-3,-2,-2,1757008755989693164
0,6.259219169,20250904135915990,None,-2,-3,-3,1,-2,0,-4,0,1757008755989855527
0,6.265979766,20250904135915997,None,-2,-1,4,2,3,1,-3,-1,1757008755997025728
0,6.266253471,20250904135915997,None,-2,1,-1,5,-3,-2,-2,-3,1757008755997160434
0,6.281151294,20250904135916012,None,2,0,0,-1,0,0,3,2,1757008756012110233
0,6.28131175,20250904135916012,None,-2,-3,1,-3,1,3,-4,-5,1757008756012267827
0,6.288547515,20250904135916020,None,-1,0,0,-2,0,-4,-7,-1,1757008756019599437
0,6.288671732,20250904135916020,None,1,0,3,0,-1,0,-3,1,1757008756019732713
0,6.296061754,20250904135916027,None,1,-1,-1,0,3,0,-1,2,1757008756027120590
0,6.296169042,20250904135916027,None,-2,-1,4,-2,0,2,3,0,1757008756027261257
0,6.310981035,20250904135916042,None,1,2,-4,-1,1,-3,-1,2,1757008756042022228
0,6.311091661,20250904135916042,None,1,1,-3,0,-2,-1,-3,1,1757008756042147397
0,6.318534612,20250904135916050,None,2,-1,-1,-1,0,-2,6,-2,1757008756049590587
0,6.318647384,20250904135916050,None,-4,-1,-2,-4,1,-1,-5,2,1757008756049718379
0,6.32583642,20250904135916057,None,1,-1,-2,1,0,3,-3,-3,1757008756056896686
0,6.32593441,20250904135916057,None,-3,-2,1,4,-4,-4,0,-3,1757008756057034015
0,6.341018915,20250904135916072,None,0,0,1,0,0,0,1,4,1757008756072047710
0,6.34121871,20250904135916072,None,-1,0,1,1,9,5,-1,-2,1757008756072174549
0,6.348432064,20250904135916079,None,0,0,-4,-7,-4,-2,-3,1,1757008756079527854
0,6.34855771,20250904135916080,None,1,3,2,-2,-1,-2,2,3,1757008756079645872
0,6.355985403,20250904135916087,None,-2,-2,-1,3,-2,-3,-3,-2,1757008756087010145
0,6.356094122,20250904135916087,None,0,0,-2,-2,1,0,-1,1,1757008756087131977
0,6.371029853,20250904135916102,None,-4,1,1,3,2,-3,1,-2,1757008756102009057
0,6.371157169,20250904135916102,None,1,-2,-1,-1,1,-1,-3,-3,1757008756102137088
0,6.378460645,20250904135916109,None,2,0,1,-4,-2,0,-2,2,1757008756109509229
0,6.378579616,20250904135916110,None,0,-2,-4,-2,0,-3,0,-4,1757008756109642982
0,6.385983705,20250904135916117,None,-2,-2,-3,-2,-3,8,1,-1,1757008756117015123
0,6.386149644,20250904135916117,None,2,3,-1,-1,-4,-8,-2,-3,1757008756117133855
0,6.401046514,20250904135916132,None,2,-3,2,2,-2,-3,-2,1,1757008756132055282
0,6.40116024,20250904135916132,None,0,3,0,4,5,3,4,3,1757008756132191896
0,6.408574342,20250904135916140,None,-3,-1,-3,-4,-3,-1,0,-1,1757008756139641046
0,6.408704996,20250904135916140,None,0,-3,0,-3,-4,3,-2,1,1757008756139779806
0,6.415941476,20250904135916147,None,1,0,0,7,0,1,2,-2,1757008756147002458
0,6.416040897,20250904135916147,None,-1,-1,-1,-2,0,-3,3,5,1757008756147122144
0,6.430932521,20250904135916162,None,0,-1,-2,-12,-5,-4,0,-6,1757008756161985874
0,6.431058883,20250904135916162,None,0,-3,0,3,0,-2,-3,0,1757008756162108898
0,6.438375473,20250904135916169,None,-1,1,-1,0,-3,-2,5,2,1757008756169465780
0,6.438467502,20250904135916169,None,-3,2,-2,0,-7,1,-2,-1,1757008756169589996
0,6.445903778,20250904135916177,None,-3,-4,-1,2,6,2,0,1,1757008756176990985
0,6.44601655,20250904135916177,None,3,-4,-1,-1,0,0,0,3,1757008756177112102
0,6.461026668,20250904135916192,None,-3,-1,-1,-2,2,0,-1,5,1757008756192044734
0,6.461146354,20250904135916192,None,-2,-2,-2,-4,-3,-3,-1,-6,1757008756192179441
0,6.468439102,20250904135916199,None,-3,-2,-2,-3,-2,0,-1,-5,1757008756199528455
0,6.468545436,20250904135916200,None,0,0,-1,0,-2,-5,0,-1,1757008756199649572
0,6.475981235,20250904135916207,None,0,1,1,1,-3,-1,-4,-2,1757008756206943035
0,6.476124048,20250904135916207,None,-3,2,0,-5,1,0,-1,0,1757008756207062959
0,6.491177082,20250904135916222,None,3,-2,-4,-1,-4,4,10,5,1757008756222050666
0,6.491356372,20250904135916222,None,-1,-3,-1,-2,-2,-4,-2,-3,1757008756222221851
0,6.498583793,20250904135916230,None,0,0,0,-3,-1,0,-4,-1,1757008756229546785
0,6.498725414,20250904135916230,None,-3,0,-2,1,1,1,0,-3,1757008756229701042
0,6.505949497,20250904135916237,None,1,-2,-1,-1,4,-8,4,2,1757008756236986875
0,6.506067037,20250904135916237,None,2,-1,-2,-1,-10,-1,0,-1,1757008756237113952
0,6.5207383629999995,20250904135916252,None,-2,0,-5,-3,-1,0,1,-2,1757008756251910686
0,6.5208334919999995,20250904135916252,None,-5,-3,-2,-3,-2,-5,-3,-1,1757008756252016544
0,6.5284342760000005,20250904135916259,None,-1,-1,0,2,-2,-1,0,2,1757008756259522914
0,6.528539896,20250904135916260,None,-2,-1,0,-1,2,1,0,1,1757008756259650707
0,6.536014318,20250904135916267,None,-4,-1,-1,-1,1,-2,-1,-3,1757008756267040491
0,6.536137104,20250904135916267,None,3,0,0,4,8,3,-3,0,1757008756267173290
0,6.551093578,20250904135916282,None,-2,1,0,2,-4,-1,1,-1,1757008756282029151
0,6.551317215,20250904135916282,None,-1,1,-3,-1,-3,-5,-3,-2,1757008756282187461
0,6.55849719,20250904135916289,None,-3,0,4,0,-2,2,5,5,1757008756289541959
0,6.558609485,20250904135916290,None,0,-2,0,-3,-9,-5,-1,-5,1757008756289686203
0,6.573408365,20250904135916304,None,0,2,-1,0,3,-6,-2,2,1757008756304467439
0,6.573518991,20250904135916305,None,-1,-2,0,0,1,-1,-1,-1,1757008756304593324
0,6.581008195,20250904135916312,None,1,0,-2,0,1,-2,3,-1,1757008756312033176
0,6.58111906,20250904135916312,None,0,0,-3,-3,-8,5,-3,-2,1757008756312165975
0,6.588663816,20250904135916320,None,-1,-1,-2,-4,-4,-8,0,0,1757008756319600105
0,6.588826656,20250904135916320,None,-4,-4,0,-1,1,-5,-1,-1,1757008756319766044
0,6.595798254,20250904135916327,None,-4,0,-2,9,2,4,2,1,1757008756326938629
0,6.595891714,20250904135916327,None,2,-2,-2,-4,5,3,0,-4,1757008756327045917
0,6.610926151,20250904135916342,None,0,-3,-3,-8,-5,-1,-3,0,1757008756341958284
0,6.6110489359999995,20250904135916342,None,0,-1,-1,-1,-3,-2,-2,-3,1757008756342089176
0,6.618404388,20250904135916349,None,1,1,-2,2,3,1,0,-2,1757008756349490880
0,6.618549347,20250904135916350,None,-1,0,0,1,-1,-1,3,1,1757008756349613666
0,6.625857114,20250904135916357,None,-2,0,0,-2,0,-1,-2,-3,1757008756356914520
0,6.625955581,20250904135916357,None,-1,-2,0,2,2,-1,-2,2,1757008756357031583
0,6.640987873,20250904135916372,None,-1,-3,-1,-1,-4,-3,-1,4,1757008756372022390
0,6.641084194,20250904135916372,None,-1,-3,-3,-2,-3,-5,-2,-4,1757008756372156143
0,6.648333787,20250904135916379,None,-2,-2,3,5,-1,0,0,-3,1757008756379465818
0,6.648427248,20250904135916379,None,3,1,0,-2,0,-3,-4,2,1757008756379581689
0,6.655929327,20250904135916387,None,-1,-1,-1,-1,-4,1,7,0,1757008756387023925
0,6.656030178,20250904135916387,None,-2,-1,-2,-3,5,0,0,1,1757008756387143611
0,6.671194076,20250904135916402,None,2,-3,-5,1,-5,1,-1,-1,1757008756401988506
0,6.671378612,20250904135916402,None,-1,-2,0,-2,-3,2,-2,1,1757008756402111768
0,6.678633451,20250904135916410,None,-2,-1,-1,-3,0,-9,2,-4,1757008756409485101
0,6.678845882,20250904135916410,None,-4,-2,-4,-3,-5,-4,-1,-3,1757008756409596443
0,6.686113834,20250904135916417,None,3,2,1,-3,-2,3,-2,1,1757008756416952133
0,6.686290741,20250904135916417,None,-1,0,-2,2,-1,-2,0,-1,1757008756417057037
0,6.700988054,20250904135916432,None,-1,-1,0,-3,0,-1,2,5,1757008756431995630
0,6.701126337,20250904135916432,None,-1,-2,0,-6,-6,-2,-4,-8,1757008756432116746
0,6.708501577,20250904135916439,None,-2,-4,0,2,1,1,-3,-5,1757008756439578533
0,6.708602666,20250904135916440,None,-1,2,-1,1,-1,0,1,0,1757008756439711809
0,6.716007471,20250904135916447,None,-1,-1,0,3,-4,1,-4,-2,1757008756447031974
0,6.716139316,20250904135916447,None,1,1,1,0,-4,-1,-3,0,1757008756447166204
0,6.730892181,20250904135916462,None,1,0,-1,0,0,4,1,7,1757008756461988687
0,6.73100543,20250904135916462,None,-1,1,-3,-1,-3,-8,-4,-6,1757008756462108373
0,6.738495111,20250904135916469,None,-1,0,-2,-1,-3,2,2,-4,1757008756469541788
0,6.73863697,20250904135916470,None,-2,-1,3,0,-4,0,0,0,1757008756469677925
0,6.745913505,20250904135916477,None,-2,0,2,4,-1,1,-2,-1,1757008756476977586
0,6.746026992,20250904135916477,None,-3,-1,-4,-1,-2,-5,0,-2,1757008756477096796
0,6.761008024,20250904135916492,None,-2,2,-2,1,-9,-1,-2,1,1757008756492011070
0,6.761131048,20250904135916492,None,1,-2,0,-4,1,0,-2,-5,1757008756492137432
0,6.76840496,20250904135916499,None,-3,-3,-3,-3,0,-4,-5,1,1757008756499524354
0,6.768512964,20250904135916499,None,1,0,-1,5,0,-1,-1,-2,1757008756499643564
0,6.776057005,20250904135916507,None,0,-4,0,2,2,2,-1,0,1757008756507045030
0,6.776198625,20250904135916507,None,-3,-1,-1,-15,-15,-11,-4,-4,1757008756507182121
0,6.79134655,20250904135916522,None,-3,0,0,-2,2,-4,0,2,1757008756522024154
0,6.791600227,20250904135916523,None,-3,1,1,2,1,0,-1,-1,1757008756522176742
0,6.798648834,20250904135916530,None,3,2,-2,0,3,2,-1,0,1757008756529497385
0,6.79886651,20250904135916530,None,2,-3,2,0,-1,2,-2,1,1757008756529613256
0,6.806206703,20250904135916537,None,0,-4,-2,0,-2,-1,-2,1,1757008756536958217
0,6.806442737,20250904135916537,None,-6,0,-3,1,0,1,0,0,1757008756537054300
0,6.8212001319999995,20250904135916552,None,-1,0,-3,-3,-2,0,3,3,1757008756552015542
0,6.8213882439999995,20250904135916552,None,2,-1,2,-1,2,1,-2,-2,1757008756552127122
0,6.828615665,20250904135916560,None,0,-2,-1,-2,-4,-5,-4,-3,1757008756559470176
0,6.828837633,20250904135916560,None,2,-2,0,-1,-1,-3,1,1,1757008756559576511
0,6.836171627,20250904135916567,None,1,4,-2,0,2,1,-2,-7,1757008756566981315
0,6.836375713,20250904135916567,None,1,2,-3,-2,-2,-4,-1,-4,1757008756567083597
0,6.851197004,20250904135916582,None,-1,0,-3,-5,-8,2,-1,-3,1757008756581997632
0,6.851464033,20250904135916582,None,0,-2,-2,-1,1,-6,-1,2,1757008756582108020
0,6.858631134,20250904135916590,None,0,-2,-1,-1,1,-2,3,2,1757008756589504957
0,6.858840465,20250904135916590,None,1,-1,-1,1,-1,6,4,-2,1757008756589617252
0,6.866121292,20250904135916597,None,-4,0,-2,0,-1,2,-2,-3,1757008756596960544
0,6.866296768,20250904135916597,None,-1,1,-1,-2,-1,-1,3,1,1757008756597058534
0,6.881124019,20250904135916612,None,-1,1,-4,-4,-1,1,-4,-2,1757008756611967563
0,6.881301641,20250904135916612,None,-1,-1,-1,-2,-3,0,4,0,1757008756612075567
0,6.888604641,20250904135916620,None,1,3,-1,2,2,2,-3,-2,1757008756619474887
0,6.888788461,20250904135916620,None,-2,-2,-1,-2,-2,-5,-1,-2,1757008756619572877
0,6.896273136,20250904135916627,None,1,-1,3,-2,-2,3,0,-3,1757008756627082586
0,6.896452903,20250904135916627,None,-1,-3,-2,-2,-1,-1,0,-3,1757008756627192497
0,6.911130428,20250904135916642,None,-5,-5,-2,2,4,-1,1,2,1757008756641947984
0,6.91131258,20250904135916642,None,-3,-3,-1,-3,-2,0,-1,-8,1757008756642045259
0,6.918582916,20250904135916650,None,0,2,-3,-5,1,0,-2,2,1757008756649448633
0,6.918745994,20250904135916650,None,-3,-1,0,0,-2,5,0,-3,1757008756649541854
0,6.925941944,20250904135916657,None,-2,-2,2,0,0,3,5,2,1757008756656921863
0,6.926097869,20250904135916657,None,-4,0,-2,-1,-1,-6,-2,-3,1757008756657030105
0,6.941010236,20250904135916672,None,-1,-3,3,9,-1,2,-2,0,1757008756671995401
0,6.941143035,20250904135916672,None,-3,-5,-2,-16,-1,1,-2,-1,1757008756672136306
0,6.94845438,20250904135916679,None,0,-1,-2,1,-2,0,-1,0,1757008756679511785
0,6.948557376,20250904135916680,None,-2,-1,0,1,2,-1,-2,1,1757008756679634571
0,6.955984592,20250904135916687,None,-1,1,-1,0,3,-1,-2,0,1757008756687034368
0,6.956092834,20250904135916687,None,-4,-1,-2,-1,-4,0,-4,-3,1757008756687160730
0,6.970981597,20250904135916702,None,3,1,-1,0,2,1,2,4,1757008756702011823
0,6.971193552,20250904135916702,None,-2,-2,0,-2,-4,-4,-3,-9,1757008756702342987
0,6.978699684,20250904135916710,None,3,0,-1,0,-2,7,-1,1,1757008756709676265
0,6.978829383,20250904135916710,None,-2,0,2,-2,-3,-13,-4,2,1757008756709856986
0,6.986291647,20250904135916717,None,-3,-3,-1,0,-4,-2,-1,-4,1757008756717263698
0,6.986373186,20250904135916717,None,-2,-5,-3,0,2,1,-2,-5,1757008756717458963
0,7.001283884,20250904135916732,None,-5,0,-1,2,-1,3,1,6,1757008756732217788
0,7.001395702,20250904135916732,None,0,0,-1,0,-8,2,-1,-7,1757008756732429504
0,7.008692979,20250904135916740,None,-1,0,-1,-6,-2,-4,-1,1,1757008756739706516
0,7.008873462,20250904135916740,None,0,-1,-3,-1,5,-1,1,-1,1757008756739886045
0,7.016183614,20250904135916747,None,-3,2,-2,-1,1,-5,0,-3,1757008756747206687
0,7.016265392,20250904135916747,None,1,-3,-1,1,1,-1,0,-2,1757008756747423410
0,7.031247615,20250904135916762,None,1,0,0,2,-3,2,-1,2,1757008756762168884
0,7.031351804,20250904135916762,None,-1,-2,2,-5,-3,0,-3,0,1757008756762381553
0,7.038596868,20250904135916770,None,-2,-3,-3,-3,0,-2,-1,-1,1757008756769659042
0,7.038661956,20250904135916770,None,5,0,-3,-2,-1,0,-1,-3,1757008756769831180
0,7.04619956,20250904135916777,None,-3,-1,-2,-2,0,-3,-1,-1,1757008756777181386
0,7.046284437,20250904135916777,None,-2,0,0,0,-4,-2,-2,0,1757008756777398586
0,7.061264515,20250904135916792,None,0,-5,0,2,-1,1,-3,0,1757008756792216777
0,7.061364889,20250904135916792,None,-4,-1,-2,2,-1,-3,-3,0,1757008756792430400
0,7.068684339,20250904135916800,None,-2,5,1,0,-1,1,-2,1,1757008756799736499
0,7.068831443,20250904135916800,None,1,1,-1,-1,-1,-3,-3,2,1757008756799916267
0,7.076258659,20250904135916807,None,-1,-3,-1,-6,-3,0,0,-4,1757008756807224273
0,7.076364517,20250904135916807,None,-1,0,-1,2,1,2,-1,-3,1757008756807429075
0,7.091042757,20250904135916822,None,0,-4,-3,-2,-1,2,5,1,1757008756822017908
0,7.09116292,20250904135916822,None,-4,-4,-1,-3,-2,-1,-5,-9,1757008756822181224
0,7.098657369,20250904135916830,None,-1,1,-4,0,-2,-1,-2,6,1757008756829671621
0,7.098739385,20250904135916830,None,1,1,1,8,1,-2,-2,-6,1757008756829855203
0,7.106571197,20250904135916838,None,-3,-1,-3,-3,7,-1,0,-1,1757008756837177753
0,7.106739044,20250904135916838,None,1,0,-2,-7,-6,0,0,2,1757008756837471008
0,7.1212744709999996,20250904135916852,None,-2,1,-1,-1,-2,1,0,-1,1757008756852049827
0,7.121450662,20250904135916852,None,0,1,-4,2,0,-1,-1,0,1757008756852202415
0,7.128608942,20250904135916860,None,0,-2,0,2,3,-2,0,0,1757008756859466075
0,7.128825426,20250904135916860,None,2,-1,0,-1,-1,-4,-4,3,1757008756859585285
0,7.136190652,20250904135916867,None,-5,2,0,7,0,0,-4,-1,1757008756867002964
0,7.136353015,20250904135916867,None,1,1,-2,-1,1,-3,-3,-4,1757008756867108583
0,7.151074171,20250904135916882,None,-2,-2,-1,1,6,4,-1,-3,1757008756882008314
0,7.151275158,20250904135916882,None,1,-1,1,-1,-4,-5,-4,-3,1757008756882351398
0,7.158644437,20250904135916890,None,0,-2,-2,-5,-8,-1,-5,0,1757008756889650106
0,7.158746004,20250904135916890,None,-1,2,-1,-1,5,-2,6,-2,1757008756889831066
0,7.173681259,20250904135916905,None,-1,-1,0,0,1,-2,1,1,1757008756904619455
0,7.173900365,20250904135916905,None,0,-3,-3,-2,2,8,-1,-1,1757008756904808521
0,7.181165695,20250904135916912,None,-1,-1,0,1,-4,-6,-1,1,1757008756912124156
0,7.181330919,20250904135916912,None,0,-1,-1,-6,-2,1,-7,-1,1757008756912289381
0,7.188667059,20250904135916920,None,-1,-1,-1,-1,-2,4,0,1,1757008756919641256
0,7.188866376,20250904135916920,None,0,1,0,2,-2,3,0,-4,1757008756919792652
0,7.203729629,20250904135916935,None,0,0,-2,-2,2,-4,-1,-4,1757008756934678792
0,7.203943014,20250904135916935,None,1,1,3,-1,-4,-2,-5,-1,1757008756934901237
0,7.211506366,20250904135916943,None,-2,-1,-3,-5,-5,-1,-1,0,1757008756942202806
0,7.211683511,20250904135916943,None,-1,-2,1,0,3,-3,-2,0,1757008756942426204
0,7.218663215,20250904135916950,None,0,-2,0,-3,-1,2,1,-1,1757008756949655294
0,7.218862056,20250904135916950,None,3,-4,-4,0,-2,0,3,4,1757008756949835062
0,7.23390007,20250904135916965,None,2,-2,-2,-3,-6,-1,-1,-3,1757008756964649915
0,7.234082698,20250904135916965,None,-1,3,2,-3,-3,-2,-1,0,1757008756964819908
0,7.241647481,20250904135916973,None,-1,-4,-2,-3,-1,1,-1,-2,1757008756972282648
0,7.241901636,20250904135916973,None,1,-1,0,4,0,-3,-2,0,1757008756972495794
0,7.249049663,20250904135916980,None,-3,1,-1,-4,-4,0,1,1,1757008756979749917
0,7.249217033,20250904135916980,None,3,-4,-1,-5,0,-1,3,-2,1757008756979925870
0,7.26406455,20250904135916995,None,1,-4,0,-5,-1,0,0,1,1757008756994736671
0,7.264294862,20250904135916995,None,-2,1,1,6,2,1,4,0,1757008756994940996
0,7.271406173,20250904135917002,None,-2,3,-1,2,-6,-3,-4,-4,1757008757002167224
0,7.271587371,20250904135917003,None,0,1,-1,-16,-12,-6,3,5,1757008757002390861
0,7.2789881229999995,20250904135917010,None,2,0,-2,1,5,0,-5,-8,1757008757009717464
0,7.279164314,20250904135917010,None,-2,-1,-3,2,-1,0,-1,-2,1757008757009907960
0,7.294065713,20250904135917025,None,-1,-2,-1,0,-6,-3,-1,1,1757008757024785518
0,7.294229745,20250904135917025,None,2,-1,-1,0,-1,-3,0,2,1757008757024987220
0,7.301697969,20250904135917033,None,-4,-2,1,-1,1,0,-3,0,1757008757032355308
0,7.301904201,20250904135917033,None,-4,0,-1,-1,-1,-2,-1,-6,1757008757032550334
0,7.308853387,20250904135917040,None,1,-2,0,0,3,0,2,-2,1757008757039622068
0,7.309331655,20250904135917040,None,0,2,1,-3,-1,-1,-4,-2,1757008757039794206
0,7.324331998,20250904135917055,None,4,-3,1,2,3,1,6,3,1757008757055002927
0,7.324550867,20250904135917056,None,-1,-3,-2,0,-3,-3,0,-2,1757008757055260419
0,7.332031965,20250904135917063,None,0,4,2,-2,-3,1,-4,0,1757008757062604904
0,7.3321950430000005,20250904135917063,None,-1,3,-1,-1,-2,-5,1,-1,1757008757062862634
0,7.33911395,20250904135917070,None,-1,-2,2,2,-3,3,1,-2,1757008757069781780
0,7.339299678,20250904135917070,None,-2,-3,0,2,1,0,1,0,1757008757069981098
0,7.354361534,20250904135917085,None,0,-3,-4,-4,-1,-1,-3,-3,1757008757084840774
0,7.354596138,20250904135917086,None,-3,-1,-3,-1,0,2,-4,-3,1757008757085067987
0,7.361361026,20250904135917092,None,-3,-1,-5,2,0,-9,-1,0,1757008757092148303
0,7.361540079,20250904135917093,None,-3,-1,2,1,3,10,3,0,1757008757092346429
0,7.368882179,20250904135917100,None,1,0,-1,0,-6,-8,0,0,1757008757099619150
0,7.369061231,20250904135917100,None,0,0,-3,-1,-2,-5,-3,2,1757008757099792480
0,7.384069442,20250904135917115,None,0,-1,-3,1,-1,5,2,2,1757008757114748716
0,7.384268999,20250904135917115,None,1,0,-2,-1,-1,-3,0,-2,1757008757114941835
0,7.391489505,20250904135917122,None,-2,-2,-1,1,-1,-1,1,1,1757008757122196197
0,7.391695499,20250904135917123,None,-4,0,-1,-1,-3,2,-2,-6,1757008757122641563
0,7.398810625,20250904135917130,None,5,-1,-1,-1,-2,0,0,2,1757008757129586219
0,7.398978471,20250904135917130,None,-1,3,-1,-2,-2,1,-6,-2,1757008757129757404
0,7.414384603,20250904135917145,None,-1,-1,-1,-1,-1,-2,-3,-3,1757008757144851446
0,7.414619207,20250904135917146,None,-2,-4,0,1,2,-3,5,-1,1757008757145090818
0,7.422017097,20250904135917153,None,-5,0,3,-1,-3,-2,-1,1,1757008757152602910
0,7.422240257,20250904135917153,None,-2,0,0,0,2,-1,-4,1,1757008757152856349
0,7.429210186,20250904135917160,None,-3,-2,-1,0,-2,-2,-3,2,1757008757159885883
0,7.429406404,20250904135917160,None,-1,-1,2,-5,-5,2,-3,-1,1757008757160084486
0,7.444046974,20250904135917175,None,0,-1,-2,9,3,1,-1,3,1757008757174793958
0,7.44421935,20250904135917175,None,1,-2,-2,-19,-6,-3,-2,1,1757008757174998998
0,7.451729059,20250904135917183,None,-4,-4,-4,1,2,3,4,-5,1757008757182425737
0,7.4519236079999995,20250904135917183,None,-1,0,-3,2,5,-1,-8,0,1757008757182615280
0,7.458909511,20250904135917190,None,-2,0,-1,1,-3,0,0,-4,1757008757189796924
0,7.459084749,20250904135917190,None,-3,2,0,4,2,0,0,5,1757008757189986705
0,7.473684549,20250904135917205,None,-2,0,-1,0,-6,0,-2,-6,1757008757204597473
0,7.47432518,20250904135917205,None,-1,0,0,2,3,1,-1,-3,1757008757204760789
0,7.481678724,20250904135917213,None,-3,-5,-4,-4,-7,-2,-5,-8,1757008757212365388
0,7.481896638,20250904135917213,None,0,-2,0,-2,1,0,-1,-1,1757008757212559461
0,7.488678455,20250904135917220,None,0,0,0,0,1,1,0,2,1757008757219584703
0,7.488855362,20250904135917220,None,1,-2,1,0,-2,-6,0,0,1757008757219746351
0,7.503667354,20250904135917235,None,-1,-2,0,0,1,-3,6,1,1757008757234629631
0,7.503892183,20250904135917235,None,-2,0,-2,4,-3,0,-2,2,1757008757234797000
0,7.510979175,20250904135917242,None,-1,-1,0,-2,1,2,-1,0,1757008757242053270
0,7.511071205,20250904135917242,None,-1,-1,-1,-4,0,-3,1,-6,1757008757242187976
0,7.518413543,20250904135917249,None,2,0,-2,2,3,1,-4,-2,1757008757249501943
0,7.51853013,20250904135917250,None,4,0,0,1,0,1,-2,2,1757008757249624252
0,7.533854723,20250904135917265,None,-2,-1,1,1,-3,-6,-4,-1,1757008757264689207
0,7.534040451,20250904135917265,None,-5,-1,-3,0,-4,2,-2,-2,1757008757264878273
0,7.541009187,20250904135917272,None,2,-5,0,0,6,4,-1,-4,1757008757271963596
0,7.541104793,20250904135917272,None,2,0,-2,1,-1,-2,1,1,1757008757272104740
0,7.548408508,20250904135917279,None,-1,-3,0,0,-3,-1,-1,2,1757008757279462814
0,7.548517465,20250904135917279,None,0,1,1,0,-1,-2,1,-4,1757008757279590129
0,7.563884735,20250904135917295,None,-2,1,3,-1,0,9,-2,-5,1757008757294723510
0,7.564057588,20250904135917295,None,1,-2,0,-1,0,-10,-2,-1,1757008757294905424
0,7.571120977,20250904135917302,None,-1,0,0,2,-1,-3,-5,1,1757008757302025556
0,7.571270465,20250904135917302,None,0,-1,0,-2,-1,-1,1,-2,1757008757302217245
0,7.578422069,20250904135917309,None,0,-2,-2,0,-2,0,-1,0,1757008757309516429
0,7.578519582,20250904135917309,None,-1,-3,-4,1,-3,-1,-1,-2,1757008757309643745
0,7.593304157,20250904135917324,None,2,-1,1,-1,-4,5,0,5,1757008757324379920
0,7.593420267,20250904135917324,None,-1,1,0,-1,2,-2,-2,0,1757008757324494838
0,7.600857734,20250904135917332,None,0,1,-2,0,0,-6,-3,-2,1757008757331977128
0,7.601003646,20250904135917332,None,1,-1,1,8,-3,0,1,4,1757008757332073926
0,7.608594417,20250904135917340,None,-1,-1,0,-5,8,3,7,-9,1757008757339552164
0,7.608728408,20250904135917340,None,-2,0,0,-13,-13,-2,-10,1,1757008757339687108
0,7.623662233,20250904135917355,None,3,-2,-1,3,2,-2,3,0,1757008757354648590
0,7.623848199,20250904135917355,None,1,2,-1,2,0,0,5,0,1757008757354802608
0,7.631011724,20250904135917362,None,-4,-2,-1,2,-1,1,-4,-4,1757008757362055063
0,7.631113767,20250904135917362,None,-2,0,1,2,4,3,-3,-3,1757008757362181901
0,7.638543844,20250904135917370,None,1,0,-3,-4,-11,-4,-3,0,1757008757369589567
0,7.638672113,20250904135917370,None,1,0,-1,1,0,0,-1,0,1757008757369725942
0,7.653504133,20250904135917384,None,-3,-2,-3,-4,5,0,0,1,1757008757384571075
0,7.653614282,20250904135917385,None,1,4,0,-2,-1,0,-3,-1,1757008757384703397
0,7.661025524,20250904135917392,None,0,0,0,-2,0,-4,-1,-2,1757008757392034769
0,7.66114068,20250904135917392,None,-2,0,-1,-3,-3,-1,-4,-4,1757008757392165422
0,7.668385505,20250904135917399,None,-2,-3,-1,-2,-1,1,-4,-4,1757008757399516582
0,7.668475627,20250904135917399,None,0,-2,-1,0,2,1,0,0,1757008757399626970
0,7.683493614,20250904135917414,None,-1,0,-4,-1,0,-3,-2,-2,1757008757414572715
0,7.683627128,20250904135917415,None,0,-1,-4,0,0,2,-1,-2,1757008757414695024
0,7.691025018,20250904135917422,None,6,-1,0,-1,-2,-2,-1,1,1757008757422060251
0,7.691121578,20250904135917422,None,1,-2,-3,-2,0,0,1,-2,1757008757422192811
0,7.698572874,20250904135917430,None,-4,2,1,0,1,0,-2,-2,1757008757429661512
0,7.69871068,20250904135917430,None,2,-1,0,0,-4,-3,0,1,1757008757429782629
0,7.7139096259999995,20250904135917445,None,-4,0,-3,-1,-1,-1,0,-8,1757008757444981813
0,7.714015007,20250904135917445,None,1,-3,-2,1,-1,-2,-6,2,1757008757445104122
0,7.72089672,20250904135917452,None,-3,0,-1,-1,-1,3,-1,0,1757008757451996326
0,7.720993995,20250904135917452,None,-1,-3,-1,0,4,2,-1,1,1757008757452112197
0,7.728271484,20250904135917459,None,1,-3,-2,-2,-5,-3,1,0,1757008757459452867
0,7.728335619,20250904135917459,None,2,1,1,-3,2,1,2,-3,1757008757459551811
0,7.743649959,20250904135917475,None,3,1,-1,1,-1,-1,-2,3,1757008757474640607
0,7.743829727,20250904135917475,None,-4,-6,-3,-1,1,0,-3,-8,1757008757474793195
0,7.751039028,20250904135917482,None,-2,-2,0,-2,-2,1,3,4,1757008757482102870
0,7.751149177,20250904135917482,None,-3,-2,2,2,2,1,1,-8,1757008757482218742
