gt,time_elapsed,current_time,current_task,emg0,emg1,emg2,emg3,emg4,emg5,emg6,emg7,emg_timer_stamp
0,0.033158541,20250904135256095,None,0,-4,-4,-3,-4,0,-1,0,1757008376094702482
0,0.033313275,20250904135256095,None,0,11,3,-3,0,0,-1,-2,1757008376094833612
0,0.040457488,20250904135256102,None,2,3,-3,2,-4,-2,1,-2,1757008376102138042
0,0.040593386,20250904135256102,None,-1,-13,0,0,1,0,1,-1,1757008376102189779
0,0.055769921,20250904135256117,None,3,-2,1,-1,-1,0,-2,-3,1757008376117337703
0,0.055916548,20250904135256117,None,-4,1,0,0,-1,0,-2,-2,1757008376117474555
0,0.06290412,20250904135256124,None,2,-3,1,0,-1,-4,0,0,1757008376124663114
0,0.063000918,20250904135256124,None,0,0,-3,-1,-3,-1,1,0,1757008376124744415
0,0.070678711,20250904135256132,None,1,-17,-3,0,0,-3,0,5,1757008376132142305
0,0.070798159,20250904135256132,None,0,24,1,-1,-3,0,3,-5,1757008376132243156
0,0.085699797,20250904135256147,None,2,-11,-7,6,-1,1,2,2,1757008376147254228
0,0.085810423,20250904135256147,None,-2,3,8,-8,-1,0,-5,-2,1757008376147399425
0,0.101022006,20250904135256162,None,2,2,-1,-1,-4,-2,-5,2,1757008376162521839
0,0.101211787,20250904135256163,None,-1,-22,-6,-5,1,-4,1,-1,1757008376162725687
0,0.10831213,20250904135256170,None,0,26,5,0,-1,-3,-2,-3,1757008376169888019
0,0.108566523,20250904135256170,None,3,-11,-4,-2,-2,-1,-2,-1,1757008376170049428
0,0.115710736,20250904135256177,None,-2,-10,-8,1,0,1,-2,-1,1757008376177339792
0,0.115844489,20250904135256177,None,-2,3,1,1,-1,-3,4,4,1757008376177495956
0,0.123366833,20250904135256185,None,0,6,0,-1,1,3,-2,-5,1757008376184878110
0,0.123535395,20250904135256185,None,-4,-3,-1,0,-4,-2,-3,-3,1757008376185036659
0,0.138508082,20250904135256200,None,0,-1,-4,3,-2,-2,-1,0,1757008376199893236
0,0.138707638,20250904135256200,None,-3,-2,1,-1,1,-1,-1,0,1757008376200081586
0,0.145705462,20250904135256207,None,2,2,-3,-3,-3,1,-2,2,1757008376207338571
0,0.145867348,20250904135256207,None,-1,-8,-2,0,0,1,-2,-4,1757008376207528114
0,0.15328908,20250904135256215,None,0,-2,-9,-1,-1,-3,-3,-7,1757008376214840173
0,0.153457404,20250904135256215,None,0,-5,-4,-4,0,-2,-1,-3,1757008376214997529
0,0.168582678,20250904135256230,None,-1,-8,-2,1,2,1,-1,-2,1757008376229960918
0,0.168868542,20250904135256230,None,0,17,2,-3,-2,-4,-1,-1,1757008376230128049
0,0.176209927,20250904135256238,None,-2,-8,-2,-1,-1,0,0,-2,1757008376237421751
0,0.176542521,20250904135256238,None,-2,-4,-7,-6,2,2,2,2,1757008376237609148
0,0.183315516,20250904135256245,None,-3,1,2,2,-3,-3,0,-2,1757008376244830131
0,0.183653594,20250904135256245,None,-1,-6,-1,0,-1,-3,4,1,1757008376244979143
0,0.198409796,20250904135256260,None,-3,-16,-2,2,1,1,-1,1,1757008376259908914
0,0.198566437,20250904135256260,None,-1,26,4,-1,0,0,-3,-2,1757008376260083198
0,0.205737114,20250904135256267,None,0,-10,0,-5,-2,0,-7,-3,1757008376267334938
0,0.205839158,20250904135256267,None,8,2,2,9,-2,-3,-2,2,1757008376267473220
0,0.213075638,20250904135256274,None,1,-3,-4,3,1,-2,-1,1,1757008376274775505
0,0.213162899,20250904135256275,None,-2,-2,1,2,1,-3,-2,-2,1757008376274886608
0,0.228574753,20250904135256290,None,-2,-1,-2,-6,-1,0,-1,-1,1757008376290018796
0,0.228764534,20250904135256290,None,-2,-2,-1,5,2,-3,1,-2,1757008376290252447
0,0.235849619,20250904135256297,None,-1,-19,-2,-1,2,1,2,-3,1757008376297532081
0,0.235948086,20250904135256297,None,-7,21,1,-5,-8,-4,-7,-4,1757008376297717332
0,0.243363619,20250904135256305,None,1,-2,5,1,1,0,0,-6,1757008376305033922
0,0.24349165,20250904135256305,None,-5,-7,-3,0,-1,-2,-2,-2,1757008376305257558
0,0.258441449,20250904135256320,None,1,-4,-5,0,2,0,-1,3,1757008376319973230
0,0.258599043,20250904135256320,None,1,-17,-6,0,0,-4,1,-4,1757008376320183515
0,0.265832186,20250904135256327,None,-2,26,5,-2,-3,0,-4,1,1757008376327499628
0,0.265919447,20250904135256327,None,-1,-8,-3,-1,-5,1,-5,-1,1757008376327699422
0,0.273608685,20250904135256335,None,-3,-5,-4,-1,0,0,4,9,1757008376334958791
0,0.273827553,20250904135256335,None,-3,-2,1,-1,-3,-2,-2,-8,1757008376335145473
0,0.288866282,20250904135256350,None,-8,-2,-3,-3,-5,-3,-2,-7,1757008376349975347
0,0.289039851,20250904135256350,None,6,7,3,1,1,-3,0,-1,1757008376350166082
0,0.296318531,20250904135256358,None,-1,-3,-1,3,-2,-1,-1,4,1757008376357573747
0,0.29652071,20250904135256358,None,0,-3,-2,2,2,1,-2,1,1757008376357741832
0,0.303886414,20250904135256365,None,-5,-19,-5,-3,0,-2,-4,-3,1757008376365093231
0,0.304064274,20250904135256365,None,-1,25,4,0,-2,1,0,1,1757008376365272998
0,0.318942786,20250904135256380,None,-1,-7,-6,-2,-2,0,-3,-5,1757008376380112171
0,0.319121123,20250904135256381,None,1,-6,0,-2,0,-2,2,0,1757008376380282640
0,0.326451064,20250904135256388,None,-3,-1,-2,-1,-1,-3,2,0,1757008376387604713
0,0.326609374,20250904135256388,None,-2,-14,-2,1,0,-1,-5,-1,1757008376387773513
0,0.333895445,20250904135256395,None,1,18,0,-14,-2,-1,-2,4,1757008376395017147
0,0.334579945,20250904135256396,None,5,-11,-4,-2,-6,-4,3,-3,1757008376395210027
0,0.349409104,20250904135256411,None,-1,-2,-1,-1,-2,-5,-2,-4,1757008376410282135
0,0.349619866,20250904135256411,None,0,-1,-2,4,-1,-1,0,1,1757008376410504817
0,0.356434107,20250904135256418,None,0,-2,1,-1,-2,-1,5,0,1757008376417597770
0,0.356927634,20250904135256418,None,-4,2,3,0,1,0,-1,0,1757008376417778253
0,0.364123583,20250904135256426,None,-2,-3,-3,4,0,0,0,8,1757008376425325155
0,0.364549876,20250904135256426,None,4,3,0,-5,-3,-2,-1,-10,1757008376425519704
0,0.37942338,20250904135256441,None,-3,-2,0,-2,0,-3,-2,-4,1757008376440437078
0,0.379628897,20250904135256441,None,-2,-6,-5,-7,-3,-1,-1,0,1757008376440649986
0,0.386593342,20250904135256448,None,-4,0,-5,5,1,0,0,0,1757008376447680711
0,0.386781931,20250904135256448,None,0,12,2,1,-1,0,2,2,1757008376447878599
0,0.394181252,20250904135256456,None,-1,-4,3,-1,-2,-1,0,-4,1757008376455192565
0,0.394453049,20250904135256456,None,3,-3,2,1,5,0,1,0,1757008376455437660
0,0.408991099,20250904135256470,None,-2,-4,-6,-5,-6,-3,-3,-1,1757008376470072507
0,0.409195424,20250904135256471,None,-5,-4,2,2,-2,-3,1,2,1757008376470275640
0,0.416270018,20250904135256478,None,3,6,-2,-4,0,-2,1,2,1757008376477554321
0,0.416477919,20250904135256478,None,-12,-6,1,-1,0,1,-2,1,1757008376477738380
0,0.423774004,20250904135256485,None,0,2,2,0,0,-2,-3,-5,1757008376485094070
0,0.423933506,20250904135256485,None,0,-3,-4,3,-4,-1,4,2,1757008376485270977
0,0.438450098,20250904135256500,None,1,-4,2,-1,-1,-1,-3,-6,1757008376499897718
0,0.438587904,20250904135256500,None,-4,3,3,-1,0,-1,-2,-7,1757008376500046014
0,0.446050883,20250904135256507,None,0,-1,-2,9,0,-1,-1,-4,1757008376507499694
0,0.446203471,20250904135256508,None,-7,0,-1,-8,-5,-1,2,-1,1757008376507637739
0,0.453444958,20250904135256515,None,10,-4,-1,-3,0,-2,-1,1,1757008376514844894
0,0.453601361,20250904135256515,None,5,0,2,3,3,-2,1,3,1757008376514995574
0,0.468641758,20250904135256530,None,-1,-5,-5,-1,-2,-1,0,0,1757008376529846668
0,0.46883607,20250904135256530,None,-3,3,3,3,-1,0,-2,-4,1757008376529977560
0,0.476260424,20250904135256538,None,-1,15,-1,-3,1,-1,0,-1,1757008376537548542
0,0.476483822,20250904135256538,None,-1,-13,1,0,-4,-3,1,8,1757008376537734031
0,0.48388052,20250904135256545,None,1,-5,-9,3,0,1,-1,-6,1757008376544995784
0,0.484107733,20250904135256546,None,-7,-12,5,2,2,-1,-3,-10,1757008376545178890
0,0.498553753,20250904135256560,None,3,13,0,-1,1,-2,2,0,1757008376559858798
0,0.498754263,20250904135256560,None,0,-5,-2,-1,0,1,3,4,1757008376560031652
0,0.505786658,20250904135256567,None,2,3,0,1,-2,-3,-1,-6,1757008376567296981
0,0.505909443,20250904135256567,None,1,-2,-4,-3,1,-1,2,2,1757008376567410469
0,0.513213873,20250904135256575,None,-4,-4,-6,-1,1,-2,-1,-2,1757008376574760675
0,0.513283253,20250904135256575,None,-1,3,4,2,-4,-3,0,0,1757008376574858188
0,0.528501273,20250904135256590,None,-1,0,-3,-2,-1,-5,-3,0,1757008376589740991
0,0.528678179,20250904135256590,None,1,-1,-2,-2,-2,0,-2,-4,1757008376589864730
0,0.536022425,20250904135256597,None,-3,0,2,3,-3,-3,0,0,1757008376597291707
0,0.536199332,20250904135256598,None,-2,-1,-1,6,2,1,2,0,1757008376597412109
0,0.543600321,20250904135256605,None,2,-2,0,-5,-3,0,-4,1,1757008376604764938
0,0.543787957,20250904135256605,None,1,-4,-2,-5,1,1,0,-2,1757008376604860305
0,0.558852911,20250904135256620,None,-1,-4,-3,-4,-3,-1,2,-3,1757008376620211601
0,0.559035063,20250904135256620,None,-2,0,3,-3,6,0,-2,5,1757008376620327472
0,0.56582594,20250904135256627,None,-2,-3,-7,-3,-3,0,-5,-7,1757008376627316236
0,0.565949679,20250904135256627,None,0,-10,-1,-2,-2,0,0,0,1757008376627449035
0,0.573273182,20250904135256635,None,-5,38,6,-2,0,-1,-4,-3,1757008376634765863
0,0.573427201,20250904135256635,None,1,-12,-4,6,2,4,-2,-1,1757008376634902715
0,0.588701964,20250904135256650,None,10,-5,-3,-11,-5,-4,-2,0,1757008376649766445
0,0.588968754,20250904135256650,None,-3,-5,-3,-6,-5,-2,1,-3,1757008376649922132
0,0.596132994,20250904135256658,None,-5,-1,-5,2,1,1,-1,0,1757008376657433032
0,0.596289635,20250904135256658,None,-2,0,6,2,0,-3,-3,-2,1757008376657602071
0,0.6035707,20250904135256665,None,-3,2,2,0,0,0,3,9,1757008376664906978
0,0.603752852,20250904135256665,None,0,0,-3,1,3,-1,-2,-8,1757008376665077209
0,0.618688822,20250904135256680,None,0,-3,-1,-4,-3,0,0,-6,1757008376679925680
0,0.618855715,20250904135256680,None,-1,0,-2,2,2,2,-1,-1,1757008376680107355
0,0.626212836,20250904135256688,None,-4,1,-1,-2,1,-1,-1,3,1757008376687458992
0,0.626440287,20250904135256688,None,-4,-1,-4,1,0,-2,-3,-4,1757008376687634468
0,0.633630038,20250904135256695,None,-1,1,0,0,-3,0,2,1,1757008376694945573
0,0.633776904,20250904135256695,None,-1,-4,-7,-3,-2,-1,1,0,1757008376695113897
0,0.648575783,20250904135256710,None,-2,-7,0,0,0,-2,-2,12,1757008376709962844
0,0.648773194,20250904135256710,None,-1,20,4,-2,-7,-3,-2,-4,1757008376710145711
0,0.656222344,20250904135256718,None,0,-25,-3,0,-1,-1,3,-1,1757008376717566490
0,0.656403542,20250904135256718,None,3,21,3,-3,-1,-2,-4,-3,1757008376717730283
0,0.663822651,20250904135256725,None,0,-6,-2,-3,1,-3,-3,2,1757008376725030422
0,0.664017201,20250904135256725,None,1,-6,-2,-1,-1,-5,-1,-1,1757008376725210666
0,0.678953171,20250904135256740,None,2,-3,3,0,0,1,1,0,1757008376740136623
0,0.679144145,20250904135256741,None,0,0,2,0,0,-1,-1,-4,1757008376740357875
0,0.686428309,20250904135256748,None,-3,-4,-3,0,1,-1,1,-2,1757008376747591972
0,0.686609745,20250904135256748,None,2,2,1,-3,1,-3,-4,1,1757008376747762441
0,0.694234133,20250904135256756,None,-3,-1,0,7,-1,0,-1,-4,1757008376755330801
0,0.694469452,20250904135256756,None,0,1,-8,-7,0,0,-1,0,1757008376755536079
0,0.709193945,20250904135256771,None,-4,3,6,9,2,1,-1,-2,1757008376770176410
0,0.709450007,20250904135256771,None,-9,-1,-5,-11,-8,-3,0,1,1757008376770422697
0,0.716494799,20250904135256778,None,-1,-2,-4,-3,0,0,-2,-2,1757008376777684926
0,0.71667862,20250904135256778,None,7,-1,2,1,1,0,0,10,1757008376777882575
0,0.723845244,20250904135256785,None,4,2,0,1,-1,-1,0,-3,1757008376785108566
0,0.724022627,20250904135256785,None,0,-2,-2,0,-1,3,-5,-11,1757008376785292863
0,0.738780261,20250904135256800,None,-2,-2,-1,0,-1,-3,1,-1,1757008376800046443
0,0.73899436,20250904135256800,None,-2,-1,0,0,0,0,-4,3,1757008376800257682
0,0.745926857,20250904135256807,None,-3,1,-7,-7,-2,0,0,-5,1757008376807430744
0,0.746028424,20250904135256807,None,-5,-11,-3,-1,-6,-2,-2,-10,1757008376807559728
0,0.7534194,20250904135256815,None,2,30,7,4,3,1,1,0,1757008376814884662
0,0.753552676,20250904135256815,None,-2,-8,-1,-6,-3,-1,2,4,1757008376815015077
0,0.768688441,20250904135256830,None,-2,-10,-3,0,5,0,0,-2,1757008376829918622
0,0.768883706,20250904135256830,None,0,0,-2,2,0,-1,-2,-3,1757008376830058097
0,0.77661109,20250904135256838,None,-3,-3,-2,-4,-6,-4,-1,0,1757008376837740898
0,0.776790619,20250904135256838,None,-2,-4,-3,-1,0,0,-1,3,1757008376837952852
0,0.784110308,20250904135256846,None,-1,3,3,0,-1,-1,1,-2,1757008376845181226
0,0.784311533,20250904135256846,None,2,7,5,2,-2,1,0,1,1757008376845416307
0,0.798719407,20250904135256860,None,-3,-6,-2,0,2,-1,1,0,1757008376860084056
0,0.798885346,20250904135256860,None,-1,-4,-1,-1,0,0,0,-3,1757008376860318660
0,0.806054593,20250904135256867,None,-1,1,-5,0,-3,-1,-1,-1,1757008376867592811
0,0.806246996,20250904135256868,None,4,-3,2,-2,-1,-1,-1,0,1757008376867775201
0,0.813776255,20250904135256875,None,-3,-11,-5,-9,3,0,-2,-2,1757008376875067710
0,0.814133883,20250904135256876,None,-8,21,3,2,0,-2,-3,-4,1757008376875271081
0,0.836875201,20250904135256898,None,-5,-2,1,1,1,0,3,-1,1757008376898330211
0,0.837112666,20250904135256899,None,-11,-6,-6,5,-2,-3,3,13,1757008376898553848
0,0.83738494,20250904135256899,None,9,-5,-2,-5,-3,-1,-2,-5,1757008376899025201
0,0.837498665,20250904135256899,None,-1,17,2,-1,-6,-2,-6,-10,1757008376899174690
0,0.843559266,20250904135256905,None,-2,-13,-6,2,-1,-1,-1,-6,1757008376905069351
0,0.843738795,20250904135256905,None,-2,-1,1,1,1,1,-1,-6,1757008376905269622
0,0.858578206,20250904135256920,None,-4,-2,-2,-3,-2,-1,-3,-4,1757008376920055150
0,0.858758212,20250904135256920,None,1,-1,-1,-1,-1,-2,0,-1,1757008376920277833
0,0.866142273,20250904135256928,None,3,1,-2,-1,1,-2,0,0,1757008376927576780
0,0.866311312,20250904135256928,None,-1,-5,0,4,-3,1,-3,4,1757008376927767753
0,0.873756648,20250904135256935,None,-1,-2,-1,-3,0,-4,-4,-5,1757008376935035705
0,0.874119521,20250904135256936,None,0,-2,-3,-3,-3,1,2,-3,1757008376935256242
0,0.88878131,20250904135256950,None,1,-4,-5,1,2,1,1,1,1757008376950101137
0,0.888953209,20250904135256950,None,-3,-5,2,-3,-3,-4,-1,-4,1757008376950300693
0,0.896172762,20250904135256958,None,-1,11,3,5,-2,-3,0,-3,1757008376957606077
0,0.896399022,20250904135256958,None,1,-4,2,-1,1,1,2,11,1757008376957777976
0,0.903660775,20250904135256965,None,-3,-1,-5,-7,5,0,-3,-15,1757008376965072631
0,0.903823615,20250904135256965,None,-3,-17,-4,-2,-6,-2,-6,-5,1757008376965262889
0,0.918694735,20250904135256980,None,8,29,4,2,-4,-1,-2,2,1757008376980082750
0,0.918872357,20250904135256980,None,2,-6,-1,-3,-4,0,2,-2,1757008376980285882
0,0.926108361,20250904135256988,None,-2,-9,-5,-2,-3,1,1,6,1757008376987553119
0,0.926275254,20250904135256988,None,-4,-3,0,5,3,-1,0,1,1757008376987733364
0,0.933531046,20250904135256995,None,-1,-3,-1,-1,-2,-2,-4,-1,1757008376994928121
0,0.933710099,20250904135256995,None,4,4,3,-4,-1,-3,-3,-3,1757008376995100498
0,0.948573828,20250904135257010,None,8,-4,0,3,4,-1,-5,-7,1757008377009922742
0,0.948770762,20250904135257010,None,-2,-4,-2,0,-2,-3,0,-7,1757008377010075569
0,0.956318379,20250904135257018,None,-3,1,0,-14,-5,-3,0,-2,1757008377017636299
0,0.956547738,20250904135257018,None,-1,-1,-2,1,-2,-1,0,3,1757008377017819166
0,0.963454009,20250904135257025,None,-2,-1,1,0,-2,-1,-2,0,1757008377024883985
0,0.963657141,20250904135257025,None,3,-2,-3,-2,-1,-3,1,-3,1757008377024992227
0,0.97867632,20250904135257040,None,-1,0,-2,2,0,-1,-3,1,1757008377040075302
0,0.978879452,20250904135257040,None,0,-3,4,-2,-1,-3,1,-6,1757008377040278434
0,0.986229659,20250904135257048,None,-1,4,-9,-1,-1,-4,-3,0,1757008377047626495
0,0.986456395,20250904135257048,None,-3,-6,12,2,-1,-1,0,0,1757008377047815322
0,0.993585587,20250904135257055,None,-6,-14,-5,-4,0,0,1,0,1757008377055074453
0,0.993761301,20250904135257055,None,1,21,7,2,-2,1,1,-1,1757008377055293798
0,1.008559704,20250904135257070,None,-4,-2,-3,-1,0,0,1,-1,1757008377070071697
0,1.00872016,20250904135257070,None,-2,-11,-7,0,-2,-3,-7,-12,1757008377070271968
0,1.016029597,20250904135257077,None,-1,-2,2,1,-2,0,0,0,1757008377077579021
0,1.016191245,20250904135257078,None,-1,2,1,-7,-1,-2,0,1,1757008377077755451
0,1.023545742,20250904135257085,None,3,1,-2,2,-3,-4,0,5,1757008377085050582
0,1.023709774,20250904135257085,None,3,2,1,4,3,2,1,-1,1757008377085263967
0,1.038861514,20250904135257100,None,-1,-3,-1,-5,-7,-3,-1,1,1757008377100075721
0,1.039151431,20250904135257101,None,-4,2,-1,-8,-3,-3,0,1,1757008377100286960
0,1.04617548,20250904135257108,None,-1,-1,-7,-2,2,-4,-4,2,1757008377107574701
0,1.046374321,20250904135257108,None,2,1,2,-2,-2,-1,2,-1,1757008377107744693
0,1.061222792,20250904135257123,None,3,4,0,-1,-1,-2,-1,-3,1757008377122622728
0,1.061439753,20250904135257123,None,-2,-9,-1,-2,2,0,-3,7,1757008377122813701
0,1.068751097,20250904135257130,None,10,-4,-2,-1,-4,-3,0,-2,1757008377130112409
0,1.068944931,20250904135257130,None,0,3,-1,-5,0,-1,-1,2,1757008377130293607
0,1.076160431,20250904135257138,None,1,-5,-8,1,-2,-2,-1,-2,1757008377137585163
0,1.076358796,20250904135257138,None,2,7,4,2,0,1,1,0,1757008377137735128
0,1.091214419,20250904135257153,None,0,5,-2,1,1,1,-4,-3,1757008377152607917
0,1.091440678,20250904135257153,None,-1,-14,-8,-1,0,1,-2,3,1757008377152791976
0,1.098675967,20250904135257160,None,2,-3,3,-2,0,-1,-1,3,1757008377160086154
0,1.098853589,20250904135257160,None,-2,-3,-6,-5,-7,-5,-4,-7,1757008377160274267
0,1.106158495,20250904135257168,None,-5,2,0,-6,-4,-1,2,-8,1757008377167568445
0,1.106322766,20250904135257168,None,-3,0,-4,-2,0,2,-2,3,1757008377167738914
0,1.121179343,20250904135257183,None,0,2,1,-3,-1,-2,-4,0,1757008377182599782
0,1.121377707,20250904135257183,None,-1,-2,-1,1,-4,-1,0,1,1757008377182780504
0,1.128708125,20250904135257190,None,0,-8,-1,1,0,0,3,-2,1757008377190103292
0,1.128910065,20250904135257190,None,5,6,3,-1,-1,0,-1,1,1757008377190281391
0,1.136664391,20250904135257198,None,2,-10,1,1,-3,0,1,2,1757008377198030710
0,1.136845828,20250904135257198,None,-6,-2,-1,0,1,-2,0,0,1757008377198268651
0,1.151387454,20250904135257213,None,1,-1,0,4,2,-2,0,-3,1757008377212752819
0,1.151567698,20250904135257213,None,2,-4,-4,0,-1,-1,-1,-2,1757008377212955236
0,1.158747435,20250904135257220,None,-3,0,6,5,-1,0,-4,-3,1757008377220114946
0,1.158898116,20250904135257220,None,-6,-1,-6,-4,2,2,4,5,1757008377220300436
0,1.165875674,20250904135257227,None,2,-13,2,-6,-4,-2,-3,3,1757008377227347612
0,1.165987015,20250904135257227,None,-1,22,3,-3,0,2,2,-2,1757008377227487802
0,1.181287289,20250904135257243,None,-3,-12,-1,1,-1,0,0,1,1757008377242650032
0,1.18148613,20250904135257243,None,6,-8,-2,-1,-1,0,-5,-3,1757008377242846250
0,1.188974381,20250904135257250,None,11,2,0,7,4,1,5,12,1757008377250221490
0,1.189154149,20250904135257251,None,-4,1,0,-3,-5,-2,-4,-12,1757008377250753164
0,1.195852519,20250904135257257,None,-3,-3,-2,-2,0,-1,-1,-2,1757008377257518529
0,1.196005822,20250904135257257,None,3,-12,-4,-2,-2,1,-1,6,1757008377257690668
0,1.210845948,20250904135257272,None,-1,18,-1,5,-1,-1,-2,0,1757008377272480487
0,1.210937262,20250904135257272,None,-1,-8,2,1,2,-1,3,3,1757008377272690773
0,1.218232871,20250904135257280,None,4,1,0,2,1,0,-2,-2,1757008377279936790
0,1.218400717,20250904135257280,None,-2,-3,-4,-4,1,0,-3,0,1757008377280125617
0,1.226159811,20250904135257288,None,-5,-3,-1,-2,1,-2,3,0,1757008377287824630
0,1.2262909419999999,20250904135257288,None,-3,-1,0,4,-4,-5,-4,-7,1757008377288036823
0,1.240971804,20250904135257302,None,3,-1,2,-1,-1,-2,0,2,1757008377302509784
0,1.241170407,20250904135257303,None,-1,-13,1,-1,2,1,0,-1,1757008377302699327
0,1.24874115,20250904135257310,None,2,23,0,-1,-2,0,-3,-5,1757008377309975385
0,1.248871565,20250904135257310,None,-2,-5,0,-4,0,1,2,1,1757008377310160875
0,1.255783558,20250904135257317,None,3,-7,-1,2,1,-1,-3,2,1757008377317275047
0,1.255871296,20250904135257317,None,-8,-3,-2,-1,-2,-1,-2,-2,1757008377317392826
0,1.271299124,20250904135257333,None,-3,3,3,1,-2,-2,2,20,1757008377332577228
0,1.2715728290000001,20250904135257333,None,-1,-14,0,-1,-2,0,1,-14,1757008377332799911
0,1.278622151,20250904135257340,None,0,10,1,-1,0,-1,-6,-6,1757008377340035915
0,1.278787613,20250904135257340,None,-3,-9,1,0,1,-2,1,3,1757008377340218305
0,1.286211014,20250904135257348,None,-11,2,1,0,-2,1,-2,-1,1757008377347579240
0,1.2864546780000001,20250904135257348,None,1,-1,2,0,1,0,2,2,1757008377347764253
0,1.301465512,20250904135257363,None,7,-4,-3,-2,-4,-2,-3,1,1757008377362640857
0,1.301649571,20250904135257363,None,-8,-2,-2,-1,-1,-4,-1,-2,1757008377362823963
0,1.308694363,20250904135257370,None,0,0,0,1,1,-2,0,-1,1757008377369985580
0,1.308873892,20250904135257370,None,-2,-1,-8,-16,-3,2,-4,-1,1757008377370166540
0,1.316208125,20250904135257378,None,1,-16,1,2,1,-1,-1,0,1757008377377567052
0,1.3163845539999999,20250904135257378,None,0,31,9,5,-1,-1,-1,-1,1757008377377741813
0,1.331190825,20250904135257393,None,1,-8,1,2,1,-2,-1,0,1757008377392507076
0,1.331421376,20250904135257393,None,-4,-10,-7,-5,-3,-2,-3,-6,1757008377392695665
0,1.338909865,20250904135257400,None,-2,-3,-4,3,-1,0,-1,3,1757008377400069236
0,1.339090586,20250904135257401,None,-1,3,-1,-3,2,0,-3,-9,1757008377400260925
0,1.3461952209999999,20250904135257408,None,-1,-9,-1,0,-4,-3,0,1,1757008377407526731
0,1.34636736,20250904135257408,None,1,8,-2,-5,-4,-1,0,-1,1757008377407678365
0,1.361476422,20250904135257423,None,2,-3,-4,1,1,-2,0,11,1757008377422639846
0,1.361657143,20250904135257423,None,-1,-5,-1,-4,-7,-5,1,-13,1757008377422816753
0,1.369083882,20250904135257431,None,-11,-2,1,2,1,-1,-7,-8,1757008377430256605
0,1.369269133,20250904135257431,None,8,3,2,3,3,0,0,-1,1757008377430437088
0,1.376482964,20250904135257438,None,-7,-5,-2,2,1,-3,3,2,1757008377437720537
0,1.3766527179999999,20250904135257438,None,0,-3,2,-5,-5,-2,-4,0,1757008377437892198
0,1.3919384479999999,20250904135257453,None,2,2,-1,-7,-1,1,1,3,1757008377452978134
0,1.392144204,20250904135257454,None,-2,1,0,1,-4,-1,-3,-7,1757008377453188419
0,1.39923358,20250904135257461,None,-3,-5,-14,-6,-5,-1,0,1,1757008377460299491
0,1.399460078,20250904135257461,None,9,-8,12,3,2,-1,-3,5,1757008377460494518
0,1.406674147,20250904135257468,None,4,23,2,5,0,-1,1,-4,1757008377467774629
0,1.406850338,20250904135257468,None,0,-13,-5,0,1,-1,-2,0,1757008377467943668
0,1.4219028950000001,20250904135257483,None,-4,-7,-3,2,-3,-3,-3,2,1757008377482865810
0,1.422132254,20250904135257484,None,-1,-2,1,-15,-7,-2,0,-5,1757008377483078956
0,1.429218293,20250904135257491,None,-2,0,-3,2,0,-1,-5,-13,1757008377490311622
0,1.429448843,20250904135257491,None,2,-12,-1,1,0,0,1,1,1757008377490503072
0,1.436491251,20250904135257498,None,-1,-1,-3,3,1,0,1,1,1757008377497711181
0,1.436655283,20250904135257498,None,-6,-6,-1,1,-3,-2,4,-2,1757008377497891187
0,1.451618433,20250904135257513,None,1,-2,-3,-5,0,-3,-1,0,1757008377512731790
0,1.4518432620000001,20250904135257513,None,-6,3,2,1,-1,-4,-1,-1,1757008377512925386
0,1.458850384,20250904135257520,None,3,0,2,-3,-1,-1,-1,-1,1757008377520096063
0,1.459043742,20250904135257520,None,-2,-6,-8,-3,-1,0,0,-1,1757008377520270347
0,1.466443778,20250904135257528,None,-2,0,1,-1,-2,0,0,4,1757008377527634859
0,1.46660328,20250904135257528,None,-1,7,4,2,-6,-3,1,-3,1757008377527815818
0,1.481916428,20250904135257543,None,-4,-16,-6,-3,1,1,-1,-2,1757008377542887926
0,1.482200385,20250904135257544,None,-2,6,1,-6,-8,-3,-4,-1,1757008377543176651
0,1.488943339,20250904135257550,None,-3,6,-1,-1,-1,-4,-1,0,1757008377550115346
0,1.4891278749999999,20250904135257551,None,0,-11,-3,-7,0,1,1,2,1757008377550307989
0,1.496161461,20250904135257558,None,-8,-5,-2,4,2,0,-2,-1,1757008377557471990
0,1.496345282,20250904135257558,None,4,0,-3,-8,-5,-3,-7,-15,1757008377557610511
0,1.5116612919999999,20250904135257573,None,4,2,-2,3,1,-4,1,-1,1757008377572662591
0,1.511935711,20250904135257573,None,0,1,-2,4,0,-1,-1,2,1757008377572867155
0,1.518978119,20250904135257580,None,-1,-3,2,-3,-4,-1,-1,3,1757008377580071449
0,1.519255639,20250904135257581,None,-10,-3,0,-10,-4,0,0,-1,1757008377580282688
0,1.526709319,20250904135257588,None,5,-4,-1,0,2,-1,-1,1,1757008377587596654
0,1.527199269,20250904135257589,None,0,1,5,1,-2,1,0,-3,1757008377587774991
0,1.541732073,20250904135257603,None,-6,1,0,1,0,3,2,0,1757008377602897167
0,1.5419116019999999,20250904135257603,None,0,-4,-6,1,-2,2,-3,3,1757008377603112697
0,1.55771637,20250904135257619,None,-2,-3,2,-1,-1,0,-2,-3,1757008377618429422
0,1.558119297,20250904135257620,None,-2,-26,-7,-4,-6,-1,0,6,1757008377618643522
0,1.5582449440000001,20250904135257620,None,3,43,4,1,0,-4,0,-10,1757008377619126796
0,1.5582830909999998,20250904135257620,None,-3,-17,0,-2,4,-3,-6,-15,1757008377619270324
0,1.571082116,20250904135257633,None,-7,-10,-5,-1,1,-3,1,-2,1757008377632387161
0,1.571249485,20250904135257633,None,-4,-4,-5,-1,-1,0,-2,-1,1757008377632493257
0,1.578637362,20250904135257640,None,-2,-3,-4,-5,-3,1,1,4,1757008377639917612
0,1.57884264,20250904135257640,None,-5,4,-2,2,-1,-2,-1,2,1757008377640013217
0,1.586072445,20250904135257648,None,0,1,-3,2,0,-1,0,-1,1757008377647387742
0,1.5862414839999999,20250904135257648,None,-3,0,-4,-4,-6,-1,1,0,1757008377647477388
0,1.601702214,20250904135257663,None,-10,-2,1,2,2,-1,0,2,1757008377662871122
0,1.60190487,20250904135257663,None,6,-8,-3,-1,1,-4,-3,-1,1757008377663098096
0,1.608790875,20250904135257670,None,7,24,3,-2,1,0,0,-5,1757008377670044422
0,1.6089615830000001,20250904135257670,None,1,2,-1,-8,-4,-3,0,2,1757008377670222759
0,1.616449357,20250904135257678,None,-6,-12,1,1,0,3,-1,-6,1757008377677612066
0,1.616616965,20250904135257678,None,-5,4,-5,1,5,-1,-2,-1,1757008377677795171
0,1.6317059999999999,20250904135257693,None,0,-8,-3,-5,-4,-3,2,9,1757008377692563295
0,1.631942988,20250904135257693,None,4,-4,-3,2,1,-3,-6,-16,1757008377692756175
0,1.638606787,20250904135257700,None,0,-2,1,1,0,0,-6,-4,1757008377700009107
0,1.638756752,20250904135257700,None,1,1,2,3,-2,-3,2,3,1757008377700168132
0,1.645887614,20250904135257707,None,-1,3,4,0,-2,-1,-1,5,1757008377707412242
0,1.645990134,20250904135257707,None,-2,-4,-3,-3,-2,-1,-1,-8,1757008377707542419
0,1.661316395,20250904135257723,None,-2,-2,-2,2,-2,-2,-2,3,1757008377722669363
0,1.661545277,20250904135257723,None,1,-4,6,-4,1,-3,-4,0,1757008377722852706
0,1.6690456870000001,20250904135257730,None,2,1,-4,-3,0,0,0,-5,1757008377730157375
0,1.66927147,20250904135257731,None,-5,-3,-3,-3,-3,-6,-2,-2,1757008377730391025
0,1.6762347229999999,20250904135257738,None,-7,-3,-8,-1,-4,-4,-3,-5,1757008377737583637
0,1.676402569,20250904135257738,None,12,0,2,-1,1,2,-1,2,1757008377737753152
0,1.691278458,20250904135257753,None,-3,-9,-3,-1,-1,2,2,3,1757008377752594709
0,1.691462756,20250904135257753,None,2,39,9,8,4,2,-6,-11,1757008377752772808
0,1.69866848,20250904135257760,None,-5,-16,-7,-6,-5,0,-1,-1,1757008377760039329
0,1.698833943,20250904135257760,None,-4,-10,-3,-5,-3,-1,-1,2,1757008377760215044
0,1.706364871,20250904135257768,None,2,-1,-3,-2,0,-2,0,0,1757008377767620325
0,1.706535817,20250904135257768,None,-2,-1,2,3,1,-2,2,0,1757008377767801284
0,1.721213103,20250904135257783,None,-5,2,-3,-1,-7,-4,0,-4,1757008377782476902
0,1.721430064,20250904135257783,None,0,1,0,2,2,-1,-1,2,1757008377782618045
0,1.728765488,20250904135257790,None,4,1,5,4,1,1,2,3,1757008377790127277
0,1.7289583689999999,20250904135257790,None,-2,-6,-5,-8,-4,-4,-1,-3,1757008377790300369
0,1.736230612,20250904135257798,None,2,2,3,-4,-5,-1,-2,13,1757008377797594785
0,1.736415387,20250904135257798,None,-1,-4,-1,1,0,-1,-7,-16,1757008377797770261
0,1.751381398,20250904135257813,None,-3,-5,-2,-2,-1,-2,-5,-8,1757008377812609434
0,1.751559973,20250904135257813,None,9,-17,-3,-4,-1,-1,0,4,1757008377812778711
0,1.758761168,20250904135257820,None,0,22,1,-4,-3,0,2,2,1757008377819968223
0,1.75893569,20250904135257820,None,-1,-18,2,7,0,-1,-2,2,1757008377820165157
0,1.7662196159999999,20250904135257828,None,-5,14,1,1,4,3,3,3,1757008377827530860
0,1.766413212,20250904135257828,None,3,-8,-1,-6,0,-2,-1,0,1757008377827687740
0,1.78188634,20250904135257843,None,1,-4,-4,-1,-2,0,0,0,1757008377842946529
0,1.7821118839999999,20250904135257844,None,-4,2,2,-3,-1,1,-3,-4,1757008377843409061
0,1.788879633,20250904135257850,None,-9,-5,-1,3,0,-3,-2,4,1757008377850106000
0,1.789047242,20250904135257850,None,-1,-6,1,-1,-1,2,-1,-2,1757008377850289106
0,1.796266795,20250904135257858,None,10,5,5,2,1,1,-2,-14,1757008377857599496
0,1.7964890009999999,20250904135257858,None,1,-2,-2,-2,-3,-3,0,1,1757008377857778549
0,1.8114399909999999,20250904135257873,None,-7,-1,-3,-1,-4,-1,-1,1,1757008377872777700
0,1.8116176130000001,20250904135257873,None,3,-1,-1,-4,-1,-1,0,4,1757008377873012065
0,1.8187704089999999,20250904135257880,None,0,0,-6,2,-1,0,-4,1,1757008377880094289
0,1.818975926,20250904135257880,None,4,3,4,-1,1,1,-1,5,1757008377880296945
0,1.826249123,20250904135257888,None,4,-4,2,-1,-1,-1,1,3,1757008377887579202
0,1.826780558,20250904135257888,None,1,-6,-10,-1,-3,-3,-2,-6,1757008377887766599
0,1.84130168,20250904135257903,None,-7,16,8,2,-1,0,-1,-1,1757008377902646303
0,1.841522694,20250904135257903,None,7,-1,0,1,-1,-1,-1,2,1757008377902833461
0,1.848796368,20250904135257910,None,-2,-10,-5,0,-1,2,0,1,1757008377910149097
0,1.848972321,20250904135257910,None,0,-4,-1,2,4,0,3,11,1757008377910376787
0,1.8560438160000001,20250904135257917,None,0,0,0,-3,7,0,-4,-14,1757008377917470693
0,1.856222392,20250904135257918,None,1,-3,-1,-1,-2,-4,-2,-3,1757008377917644739
0,1.871156931,20250904135257933,None,-2,-1,2,7,-1,-1,0,2,1757008377932521820
0,1.8714084629999999,20250904135257933,None,-4,3,-2,0,1,-3,1,-2,1757008377932723522
0,1.8786408909999999,20250904135257940,None,-10,-1,-3,-6,-1,-4,0,1,1757008377939989805
0,1.878860951,20250904135257940,None,-3,-5,-1,-3,-6,1,-1,4,1757008377940190315
0,1.886135817,20250904135257948,None,1,-7,-9,-4,-1,0,1,0,1757008377947482109
0,1.886366606,20250904135257948,None,1,6,0,-4,-1,0,-3,-6,1757008377947711944
0,1.901174784,20250904135257963,None,3,15,9,4,4,2,-1,-2,1757008377962543725
0,1.901396037,20250904135257963,None,-1,-7,-3,-2,3,-2,-2,0,1757008377962750196
0,1.908677817,20250904135257970,None,-7,-12,-3,-2,3,1,4,9,1757008377970005512
0,1.908887387,20250904135257970,None,0,-1,-3,-5,-2,1,4,-5,1757008377970212697
0,1.91614461,20250904135257978,None,-2,1,0,-4,0,2,-3,-7,1757008377977514982
0,1.9162588120000001,20250904135257978,None,-2,-1,2,0,-2,0,-3,0,1757008377977716207
0,1.9310631759999999,20250904135257992,None,-3,-1,-4,-3,-4,1,-1,1,1757008377992492914
0,1.9317367079999999,20250904135257993,None,-1,1,4,-3,1,-1,0,-1,1757008377993132829
0,1.938489438,20250904135258000,None,0,-1,1,-1,3,0,-2,-2,1757008377999894380
0,1.9386208059999999,20250904135258000,None,-3,-2,0,8,-1,0,-1,2,1757008378000079870
0,1.946105719,20250904135258008,None,2,2,-1,-6,-4,0,0,1,1757008378007470369
0,1.946290017,20250904135258008,None,0,3,4,4,-1,-3,3,1,1757008378007650852
0,1.96113205,20250904135258023,None,14,0,-10,6,1,-1,1,1,1757008378022510766
0,1.9613137250000001,20250904135258023,None,1,-6,12,-3,3,-1,-2,10,1757008378022725582
0,1.968569279,20250904135258030,None,1,30,2,-1,0,-2,-1,-9,1757008378029952287
0,1.968734742,20250904135258030,None,1,-13,-6,-5,1,0,-5,-12,1757008378030133485
0,1.976045847,20250904135258037,None,1,-7,-1,1,2,-1,1,-2,1757008378037472963
0,1.97621274,20250904135258038,None,-1,-6,-5,4,-3,-2,-1,4,1757008378037833690
0,1.9911913879999998,20250904135258053,None,0,-5,-2,0,-3,-1,0,1,1757008378052587985
0,1.991383315,20250904135258053,None,1,1,3,2,0,-2,-1,0,1757008378052794218
0,1.9985544690000001,20250904135258060,None,-4,-2,-2,-3,2,1,-3,2,1757008378059949636
0,1.998716116,20250904135258060,None,0,5,0,2,4,0,1,-1,1757008378060132503
0,2.013586522,20250904135258075,None,3,-2,0,-1,-1,0,-2,1,1757008378074972867
0,2.013772965,20250904135258075,None,-4,-3,-5,-5,-2,-1,-2,2,1757008378075157403
0,2.021073342,20250904135258083,None,3,-4,4,2,0,-1,-4,-1,1757008378082504749
0,2.02123952,20250904135258083,None,2,7,0,5,0,-4,1,1,1757008378082682371
0,2.028630257,20250904135258090,None,-7,-9,-9,-5,1,3,2,-3,1757008378090029239
0,2.028807402,20250904135258090,None,15,-10,3,-3,0,0,0,-4,1757008378090192794
0,2.043673993,20250904135258105,None,-2,25,5,0,-5,-4,1,1,1757008378105076074
0,2.043890954,20250904135258105,None,-2,-5,1,1,1,-2,-2,0,1757008378105273246
0,2.051149607,20250904135258113,None,-5,-7,-1,5,2,0,3,1,1757008378112579822
0,2.051453591,20250904135258113,None,-4,-3,-3,-3,-3,-4,1,6,1757008378112748146
0,2.058623314,20250904135258120,None,-1,-3,-3,-2,0,-1,0,-6,1757008378120011568
0,2.058792353,20250904135258120,None,0,2,2,1,3,1,-4,-14,1757008378120212316
0,2.073683501,20250904135258135,None,-9,-4,3,0,-2,-1,-1,-10,1757008378135143518
0,2.073853016,20250904135258135,None,8,-3,-5,2,2,2,2,1,1757008378135359764
0,2.081157446,20250904135258143,None,0,3,3,2,1,1,2,4,1757008378142595291
0,2.081362248,20250904135258143,None,0,1,-2,1,-3,0,0,-7,1757008378142770767
0,2.088723183,20250904135258150,None,-2,0,-3,-3,-1,-1,-1,1,1757008378150102376
0,2.088888884,20250904135258150,None,0,0,1,-1,2,-3,0,2,1757008378150312423
0,2.103736639,20250904135258165,None,-2,0,-1,-4,-8,-1,-1,-4,1757008378165012836
0,2.103908539,20250904135258165,None,2,-8,-6,3,-1,0,0,0,1757008378165187120
0,2.110952139,20250904135258172,None,-14,-24,1,3,2,-1,-1,-4,1757008378172448396
0,2.111083031,20250904135258172,None,-1,28,7,-6,0,0,-1,3,1757008378172603368
0,2.118623734,20250904135258180,None,4,-5,2,0,-1,-1,-1,-5,1757008378180034160
0,2.118787528,20250904135258180,None,-1,-10,-8,-7,2,1,-1,-1,1757008378180216073
0,2.133707285,20250904135258195,None,1,0,-4,1,0,-2,-3,3,1757008378195093393
0,2.133882285,20250904135258195,None,-4,4,1,1,-2,-2,-5,-6,1757008378195288896
0,2.141221047,20250904135258203,None,-7,-2,0,1,-2,1,5,5,1757008378202630281
0,2.141453028,20250904135258203,None,1,-2,-1,-4,-2,-1,-2,-11,1757008378202823638
0,2.148648501,20250904135258210,None,-5,-1,-2,2,2,0,-1,-3,1757008378210063934
0,2.148898364,20250904135258210,None,-4,-6,1,-2,-3,0,-3,0,1757008378210361242
0,2.163658143,20250904135258225,None,-1,-3,-2,-3,-4,-3,2,9,1757008378224881410
0,2.163826228,20250904135258225,None,-1,-7,-3,7,2,0,-2,-3,1757008378225075006
0,2.179072857,20250904135258240,None,-7,22,-5,-5,-3,2,1,0,1757008378240553379
0,2.179203034,20250904135258241,None,1,-7,7,-2,-2,-2,-4,-1,1757008378240668773
0,2.17970109,20250904135258241,None,8,-2,3,4,2,-1,2,0,1757008378241308689
0,2.179821253,20250904135258241,None,-3,-2,-3,-1,-2,0,-2,-2,1757008378241400718
0,2.193445683,20250904135258255,None,-5,-7,-6,-1,-1,-1,0,-4,1757008378254882335
0,2.19361353,20250904135258255,None,-4,9,3,-5,-3,-3,-3,-1,1757008378255000352
0,2.200941086,20250904135258262,None,-1,8,-3,-5,2,0,2,14,1757008378262406110
0,2.201118947,20250904135258263,None,2,-11,1,1,0,1,1,-6,1757008378262519121
0,2.208404065,20250904135258270,None,2,-7,-4,-3,-1,0,-4,-8,1757008378269862174
0,2.208582163,20250904135258270,None,-1,2,4,5,1,1,-3,1,1757008378269966840
0,2.2234885699999998,20250904135258285,None,2,2,2,2,1,-1,0,5,1757008378284916877
0,2.223665476,20250904135258285,None,-7,0,0,-2,-4,-2,-2,1,1757008378285030364
0,2.230931282,20250904135258292,None,3,-3,-1,2,2,-1,-3,-3,1757008378292400121
0,2.231108427,20250904135258293,None,-9,-3,-1,-5,-2,-1,-3,1,1757008378292510509
0,2.238534451,20250904135258300,None,-3,-13,-7,-4,-4,0,2,0,1757008378299912691
0,2.238740683,20250904135258300,None,0,21,-3,0,-2,3,0,2,1757008378300019264
0,2.253554106,20250904135258315,None,1,1,9,3,-3,-1,0,3,1757008378314885854
0,2.253781319,20250904135258315,None,-9,-5,-4,-7,2,2,-4,-12,1757008378314997196
0,2.261458874,20250904135258323,None,2,-4,-4,3,-2,-2,-5,-4,1757008378322902441
0,2.261582613,20250904135258323,None,-3,0,-4,4,0,-1,1,0,1757008378323047399
0,2.268663168,20250904135258330,None,-1,-11,-1,-2,-1,-1,0,2,1757008378329904317
0,2.268878937,20250904135258330,None,3,22,6,-10,-7,-2,-2,-1,1757008378330076217
0,2.283627987,20250904135258345,None,-5,-7,-2,-2,0,2,1,2,1757008378344883441
0,2.283816338,20250904135258345,None,-6,-5,-4,-3,-4,0,0,-1,1757008378345049858
0,2.291278124,20250904135258353,None,2,-1,-1,2,0,2,4,0,1757008378352479219
0,2.29152608,20250904135258353,None,-4,-2,-5,0,-4,-5,-1,2,1757008378352653741
0,2.298502923,20250904135258360,None,-4,-3,1,-1,-1,-1,-3,-4,1757008378359745740
0,2.298801184,20250904135258360,None,2,0,2,1,-1,0,0,-1,1757008378359851360
0,2.313752652,20250904135258375,None,-3,-3,2,0,0,-2,0,1,1757008378374748706
0,2.314036608,20250904135258375,None,1,2,1,0,-1,-2,0,14,1757008378374856948
0,2.320948601,20250904135258382,None,2,5,-2,-2,0,0,-2,-9,1757008378382246494
0,2.321193457,20250904135258383,None,-3,-4,-4,-1,2,-1,-2,-6,1757008378382338285
0,2.328525305,20250904135258390,None,-2,2,7,-1,1,-1,3,0,1757008378389754056
0,2.328735829,20250904135258390,None,-5,-13,-4,-3,-2,-3,-1,1,1757008378389860868
0,2.343759537,20250904135258405,None,4,13,1,3,1,-1,0,4,1757008378404790639
0,2.344016791,20250904135258405,None,-4,-11,-3,2,-2,-4,-2,-2,1757008378404928207
0,2.350961447,20250904135258412,None,1,-8,-4,-12,-3,0,0,1,1757008378412261486
0,2.351156712,20250904135258413,None,1,5,2,7,1,-1,-1,6,1757008378412357807
0,2.358581782,20250904135258420,None,-3,6,0,0,-5,-3,-3,-2,1757008378419731140
0,2.35879612,20250904135258420,None,4,-10,0,1,0,1,-1,0,1757008378419828891
0,2.3735716350000002,20250904135258435,None,-1,0,-3,-5,1,-3,-3,1,1757008378434765100
0,2.373834372,20250904135258435,None,0,-2,-1,-1,-1,-4,1,2,1757008378434866428
0,2.38104558,20250904135258442,None,-2,-2,-1,0,-2,0,-3,-8,1757008378442281007
0,2.381282092,20250904135258443,None,-2,-2,-1,1,-1,-2,-3,-11,1757008378442381381
0,2.3885152339999998,20250904135258450,None,-2,-2,-3,-12,-6,-3,1,-3,1757008378449696302
0,2.388800145,20250904135258450,None,2,-2,0,-2,-3,1,1,1,1757008378449784994
0,2.403692246,20250904135258465,None,-4,-6,-7,3,3,-1,-1,0,1757008378464794635
0,2.403943301,20250904135258465,None,-1,5,8,1,0,-2,-1,2,1757008378464891672
0,2.411046267,20250904135258472,None,1,-12,-3,2,1,-1,-1,-2,1757008378472283601
0,2.411247254,20250904135258473,None,-3,19,2,0,-2,-2,-3,-2,1757008378472388267
0,2.418530703,20250904135258480,None,-1,-9,-3,-1,-1,2,0,2,1757008378479795694
0,2.418745518,20250904135258480,None,-2,-6,-1,-1,2,0,-2,-1,1757008378479898214
0,2.434286833,20250904135258496,None,-4,-1,0,-2,0,-1,-2,-2,1757008378495371341
0,2.434560061,20250904135258496,None,0,-11,3,3,0,-6,-3,-3,1757008378495581388
0,2.441602707,20250904135258503,None,-2,19,5,-1,3,-2,0,1,1757008378502678155
0,2.441836834,20250904135258503,None,-2,-14,-6,-5,-3,-1,-3,-10,1757008378502880573
0,2.448965311,20250904135258510,None,1,1,-1,-5,0,3,0,-4,1757008378510050535
0,2.4491992,20250904135258511,None,-4,-1,0,0,-2,1,0,-1,1757008378510255336
0,2.464423895,20250904135258526,None,3,0,1,7,-1,1,-1,-1,1757008378525399446
0,2.465096951,20250904135258527,None,3,-2,-6,-6,-1,-1,1,3,1757008378525619506
0,2.471426011,20250904135258533,None,2,0,-1,-5,-1,0,-1,0,1757008378532628059
0,2.471954823,20250904135258533,None,2,2,1,4,0,1,-2,6,1757008378532804250
0,2.478996993,20250904135258540,None,-2,-2,-5,2,-2,1,0,-3,1757008378540148973
0,2.479218007,20250904135258541,None,-3,0,5,-4,-1,-1,-9,-10,1757008378540377616
0,2.493291617,20250904135258555,None,-1,-4,-6,-2,-4,-3,-8,-7,1757008378554778814
0,2.493450404,20250904135258555,None,-10,-2,-4,-1,0,1,1,5,1757008378554900646
0,2.500873805,20250904135258562,None,5,18,0,-5,-2,-1,2,5,1757008378562385082
0,2.500975848,20250904135258562,None,0,-5,-5,3,1,1,1,-3,1757008378562502622
0,2.508348227,20250904135258570,None,-3,-5,0,1,0,-1,3,2,1757008378569846153
0,2.508593798,20250904135258570,None,-3,-3,-3,0,2,-1,-4,-7,1757008378569959402
0,2.52331853,20250904135258585,None,0,1,-1,0,-5,-1,0,0,1757008378584946155
0,2.523418904,20250904135258585,None,-8,-3,0,-1,-3,1,0,1,1757008378585026025
0,2.530820132,20250904135258592,None,2,-1,-3,1,-1,-1,-2,-3,1757008378592457771
0,2.530908108,20250904135258592,None,-4,-10,-3,0,-1,-1,0,-1,1757008378592551469
0,2.538196803,20250904135258600,None,1,21,8,-2,0,-3,-2,1,1757008378599787235
0,2.538285733,20250904135258600,None,4,6,1,2,1,0,-1,6,1757008378599893093
0,2.553590537,20250904135258615,None,-4,-8,-2,-1,-2,-2,2,-5,1757008378615028619
0,2.5537076,20250904135258615,None,-2,-2,-4,-1,-3,-1,-5,-5,1757008378615167140
0,2.560914517,20250904135258622,None,0,-1,-1,-8,-2,-4,-5,-3,1757008378622457504
0,2.561017514,20250904135258622,None,-1,0,3,-2,-2,1,0,5,1757008378622578144
0,2.5684921750000003,20250904135258630,None,0,5,1,4,-5,0,-1,0,1757008378629971027
0,2.568598271,20250904135258630,None,2,-2,-2,-1,-1,0,0,-1,1757008378630088806
0,2.583193064,20250904135258645,None,-14,-13,-3,-3,1,-1,-4,-10,1757008378644785404
0,2.583289862,20250904135258645,None,5,18,3,-1,-1,0,2,3,1757008378644895315
0,2.591153384,20250904135258653,None,2,-4,1,-3,-2,-1,2,8,1757008378652496576
0,2.591388226,20250904135258653,None,-2,-6,-4,1,1,2,1,-1,1757008378652708530
0,2.598613263,20250904135258660,None,-4,-6,2,3,-2,-1,0,1,1757008378659939050
0,2.598794461,20250904135258660,None,-1,3,0,-2,0,-1,0,-2,1757008378660081386
0,2.613460303,20250904135258675,None,1,2,1,1,1,2,-1,1,1757008378674862384
0,2.613854886,20250904135258675,None,-3,-7,-8,0,-2,0,-1,-2,1757008378674970626
0,2.620846987,20250904135258682,None,-1,1,1,-3,-4,-1,-2,0,1757008378682357788
0,2.621025801,20250904135258682,None,7,15,1,-2,-2,1,3,2,1757008378682462930
0,2.628275156,20250904135258690,None,1,-13,-2,0,-1,-1,1,1,1757008378689839363
0,2.628477335,20250904135258690,None,1,-3,0,2,-2,-3,-2,-3,1757008378689942836
0,2.643188,20250904135258705,None,0,-1,-1,-4,0,1,0,10,1757008378704861164
0,2.643316508,20250904135258705,None,-10,-3,0,-1,-3,-3,2,-2,1757008378704971790
0,2.650591612,20250904135258712,None,-6,1,-1,-5,2,-1,-2,-1,1757008378712331295
0,2.650664568,20250904135258712,None,2,2,-5,2,-5,-1,3,-1,1757008378712443113
0,2.658192397,20250904135258720,None,2,0,0,-2,1,1,1,-3,1757008378719902753
0,2.658272267,20250904135258720,None,-3,2,1,-4,-2,1,1,-2,1757008378720015764
0,2.673244954,20250904135258735,None,1,-13,-5,0,-4,-7,5,5,1757008378734888792
0,2.673322678,20250904135258735,None,-3,20,-2,-2,0,-2,-5,-19,1757008378735006570
0,2.680659771,20250904135258742,None,-3,-3,2,5,2,1,-2,-6,1757008378742381572
0,2.680744172,20250904135258742,None,-1,0,5,6,1,-1,-1,0,1757008378742507934
0,2.6881034379999997,20250904135258750,None,-3,-5,-4,-1,0,-3,2,6,1757008378749844789
0,2.688179017,20250904135258750,None,0,-3,-4,-2,0,1,1,2,1757008378749956846
0,2.703391791,20250904135258765,None,-6,-2,1,-4,-1,-3,0,3,1757008378764814138
0,2.7035596379999998,20250904135258765,None,7,1,-2,0,-2,-1,-1,-1,1757008378764962911
0,2.710897208,20250904135258772,None,0,0,0,1,2,1,1,0,1757008378772387981
0,2.711061955,20250904135258772,None,-3,-4,-2,3,-1,0,-5,1,1757008378772489786
0,2.7184047700000002,20250904135258780,None,-1,0,1,0,1,-3,-1,-1,1757008378779857397
0,2.718583823,20250904135258780,None,-5,-16,-4,-2,-3,-1,0,1,1757008378779960632
0,2.733510495,20250904135258795,None,1,20,7,-1,0,0,0,-4,1757008378794929504
0,2.733683587,20250904135258795,None,2,-2,-1,0,-1,0,-2,-2,1757008378795036554
0,2.741209746,20250904135258803,None,-4,-14,-3,1,2,0,-1,9,1757008378802609920
0,2.741424323,20250904135258803,None,-1,-2,1,1,-1,-1,-1,-4,1757008378802796125
0,2.748607636,20250904135258810,None,-1,4,-1,2,1,-2,-3,-4,1757008378810019016
0,2.748773575,20250904135258810,None,2,-1,0,-1,2,0,-3,0,1757008378810195207
0,2.763658286,20250904135258825,None,-3,-16,-4,4,-1,-2,1,11,1757008378825053215
0,2.7638375760000002,20250904135258825,None,-3,24,5,-2,-2,-3,-3,-10,1757008378825261354
0,2.771420956,20250904135258833,None,-6,-6,0,1,-3,3,-1,-7,1757008378832661151
0,2.771586895,20250904135258833,None,4,-2,0,1,-2,-1,-2,-6,1757008378832805871
0,2.77863288,20250904135258840,None,-1,2,2,2,8,2,0,1,1757008378839919805
0,2.778811455,20250904135258840,None,-2,0,-4,2,-6,-5,0,2,1757008378840028047
0,2.793637515,20250904135258855,None,-3,-2,-1,-16,-5,-2,0,2,1757008378854937314
0,2.793801308,20250904135258855,None,-1,-3,-1,1,5,1,0,4,1757008378855076789
0,2.801003457,20250904135258862,None,-2,-2,0,7,2,3,-4,-5,1757008378862280607
0,2.801184416,20250904135258863,None,4,-1,0,0,1,3,1,-2,1757008378862389087
0,2.808561802,20250904135258870,None,0,-2,-1,1,-1,3,1,-2,1757008378869856357
0,2.8087208280000002,20250904135258870,None,-1,-6,-4,-6,-3,-3,0,-2,1757008378869956970
0,2.823615075,20250904135258885,None,-2,0,0,0,-2,0,-1,4,1757008378884856224
0,2.823792696,20250904135258885,None,-5,-5,0,-1,-1,-1,0,0,1757008378885129690
0,2.831037522,20250904135258892,None,-3,0,-1,5,1,-3,-5,-7,1757008378892346143
0,2.831225396,20250904135258893,None,-6,0,-3,-5,-3,-1,-5,-1,1757008378892452001
0,2.838619709,20250904135258900,None,15,-25,-7,-4,-1,-4,0,1,1757008378899913787
0,2.838785172,20250904135258900,None,3,37,8,-2,0,2,1,0,1757008378900016069
0,2.853642464,20250904135258915,None,-2,-1,1,0,0,-1,-2,11,1757008378914911031
0,2.853820086,20250904135258915,None,0,-17,-4,-1,-1,-2,-3,-3,1757008378915028572
0,2.861053944,20250904135258922,None,-3,2,2,-1,-1,1,0,7,1757008378922353506
0,2.861216784,20250904135258923,None,1,-3,-5,0,-5,-3,-6,-7,1757008378922459363
0,2.868579388,20250904135258930,None,-2,1,-1,1,-1,-4,-5,-9,1757008378929856538
0,2.868742228,20250904135258930,None,-2,-1,-3,0,0,-2,0,-2,1757008378929960727
0,2.883621932,20250904135258945,None,-1,-5,1,-4,-2,-1,-2,-2,1757008378944887876
0,2.883799077,20250904135258945,None,2,-1,3,-4,-1,-3,1,-1,1757008378944999933
0,2.891395331,20250904135258953,None,-3,-2,2,4,0,3,2,-2,1757008378952696084
0,2.891568423,20250904135258953,None,-1,0,-2,0,-1,1,-3,1,1757008378952887535
0,2.898628474,20250904135258960,None,-4,-4,-4,3,1,-1,-1,-3,1757008378959909677
0,2.898796559,20250904135258960,None,-1,0,0,-1,-2,-4,0,-1,1757008378960039854
0,2.913657904,20250904135258975,None,4,0,-3,-3,-3,1,-3,-3,1757008378974946498
0,2.913822413,20250904135258975,None,0,1,0,-4,-4,-2,0,1,1757008378975054025
0,2.92110324,20250904135258983,None,1,-6,1,2,1,-1,-3,0,1757008378982415676
0,2.9212679870000002,20250904135258983,None,2,-1,-1,4,-1,0,3,10,1757008378982515573
0,2.928625346,20250904135258990,None,-4,1,-4,-15,-4,-2,-1,-7,1757008378989928483
0,2.928811789,20250904135258990,None,11,-16,-3,0,-4,0,-5,-8,1757008378990023851
0,2.9436354639999998,20250904135259005,None,-2,13,4,0,2,1,1,1,1757008379004918098
0,2.94381404,20250904135259005,None,-3,-6,4,-4,-3,-2,0,8,1757008379005024909
0,2.951120139,20250904135259013,None,-4,-18,-6,6,0,0,1,-6,1757008379012403964
0,2.951290608,20250904135259013,None,3,20,2,0,-3,-2,-2,11,1757008379012504816
0,2.96622777,20250904135259028,None,4,3,0,-2,-1,-1,3,-5,1757008379027503967
0,2.966437817,20250904135259028,None,-2,-9,-5,-4,-1,1,-1,-2,1757008379027637720
0,2.973623276,20250904135259035,None,-3,-4,-1,-4,-2,0,-4,-1,1757008379034919023
0,2.973810673,20250904135259035,None,-2,-3,-6,-2,-1,-1,0,0,1757008379035018920
0,2.981160403,20250904135259043,None,0,3,4,5,3,1,-2,-1,1757008379042458057
0,2.981380702,20250904135259043,None,-8,-3,-2,0,-3,-1,-3,-2,1757008379042565822
0,2.996170521,20250904135259058,None,5,0,-1,-1,0,-1,2,1,1757008379057441473
0,2.9963879589999998,20250904135259058,None,-1,-1,-1,-3,0,0,1,-2,1757008379057549715
0,3.003645659,20250904135259065,None,-3,-1,0,-1,-1,-1,4,8,1757008379064932107
0,3.003869057,20250904135259065,None,-4,0,2,-2,0,-2,-4,-18,1757008379065035104
0,3.01115346,20250904135259073,None,1,-2,1,1,0,0,0,-5,1757008379072436809
0,3.011402846,20250904135259073,None,-1,-2,2,1,-4,-2,1,4,1757008379072542667
0,3.026178599,20250904135259088,None,-1,-1,-1,7,5,-1,0,3,1757008379087480306
0,3.026388646,20250904135259088,None,-2,-1,0,-2,-3,-3,3,-3,1757008379087595701
0,3.033674717,20250904135259095,None,-1,-1,-1,0,-3,0,-1,-3,1757008379094946622
0,3.033857108,20250904135259095,None,4,-2,-2,-3,-1,-1,-3,2,1757008379095048666
0,3.040981055,20250904135259102,None,-10,-18,-1,1,3,-1,2,-7,1757008379102319478
0,3.041146517,20250904135259103,None,4,17,-1,0,-1,3,-2,1,1757008379102410793
0,3.056143761,20250904135259118,None,0,-7,2,-1,0,-3,-3,-2,1757008379117398262
0,3.056372881,20250904135259118,None,-9,-1,-3,3,-1,-2,-3,-2,1757008379117496728
0,3.063645363,20250904135259125,None,3,1,-1,1,-2,-4,-1,1,1757008379124931573
0,3.06381321,20250904135259125,None,-2,5,-3,-4,1,0,-5,6,1757008379125060796
0,3.071139574,20250904135259133,None,2,0,-1,2,1,-2,5,0,1757008379132414102
0,3.07130313,20250904135259133,None,0,-1,-2,1,2,0,-6,-13,1757008379132523059
0,3.086237431,20250904135259148,None,-1,-21,-6,-4,0,0,-2,0,1757008379147481679
0,3.086441756,20250904135259148,None,0,28,3,3,2,0,2,7,1757008379147605419
0,3.093614817,20250904135259155,None,-4,3,1,-3,-4,-3,-4,-6,1757008379154914379
0,3.093777657,20250904135259155,None,-3,-8,-7,-6,-2,1,0,0,1757008379155009031
0,3.10116458,20250904135259163,None,-4,-4,-7,-2,3,4,-1,0,1757008379162458658
0,3.101379157,20250904135259163,None,-6,0,4,2,0,-3,-1,-1,1757008379162563562
0,3.116169692,20250904135259178,None,1,1,-2,-1,-1,0,-1,-2,1757008379177441835
0,3.116374732,20250904135259178,None,4,-3,2,2,1,-3,1,0,1757008379177565097
0,3.123623133,20250904135259185,None,-4,1,-4,0,1,-4,-4,-2,1757008379184897422
0,3.123799086,20250904135259185,None,-1,2,2,0,-1,0,1,1,1757008379184996128
0,3.131103993,20250904135259193,None,-1,0,0,1,0,-2,-7,-12,1757008379192407846
0,3.13127184,20250904135259193,None,-3,-3,-1,0,0,-2,1,-1,1757008379192507028
0,3.14616108,20250904135259208,None,6,-17,-3,-1,-5,-2,0,2,1757008379207471132
0,3.146356106,20250904135259208,None,2,24,4,1,3,1,-1,1,1757008379207574605
0,3.153644801,20250904135259215,None,0,-4,-2,0,1,2,-2,0,1757008379214906215
0,3.153807164,20250904135259215,None,4,-5,-2,2,0,-2,-3,-8,1757008379215004205
0,3.161107779,20250904135259223,None,-1,1,-4,-2,0,2,0,2,1757008379222409009
0,3.161295414,20250904135259223,None,0,0,-2,0,1,-2,0,-1,1757008379222512483
0,3.1761899,20250904135259238,None,1,-5,-6,0,0,0,0,0,1757008379237472534
0,3.176410199,20250904135259238,None,-8,-2,-2,-1,-4,-1,-4,6,1757008379237595081
0,3.183651925,20250904135259245,None,3,5,1,2,7,2,0,-5,1757008379244929790
0,3.183830739,20250904135259245,None,-2,0,-2,-3,-6,-4,-1,8,1757008379245038747
0,3.19112444,20250904135259253,None,-4,-3,-4,0,-2,-3,-6,-13,1757008379252425670
0,3.191291333,20250904135259253,None,-1,-11,-1,1,3,-3,-2,-7,1757008379252539634
0,3.206158877,20250904135259268,None,0,24,5,2,-2,-2,0,-3,1757008379267429351
0,3.206391573,20250904135259268,None,-1,-8,-2,-3,1,-2,1,1,1757008379267543554
0,3.213647604,20250904135259275,None,2,-7,-3,-4,-1,0,2,-1,1757008379274934530
0,3.213829756,20250904135259275,None,-2,1,2,1,0,-2,-3,0,1757008379275031805
0,3.221119404,20250904135259283,None,0,0,1,2,-2,-4,-2,-4,1757008379282426357
0,3.221318961,20250904135259283,None,-7,-1,-4,0,-3,-1,-2,-1,1757008379282532930
0,3.236154318,20250904135259298,None,2,0,1,-3,-1,0,0,-2,1757008379297418832
0,3.236366988,20250904135259298,None,-1,1,0,1,-2,1,0,3,1757008379297531843
0,3.243598462,20250904135259305,None,-4,-5,-4,-2,-3,1,-1,6,1757008379304886579
0,3.243774415,20250904135259305,None,-1,-3,-3,-2,0,-2,0,-5,1757008379304981708
0,3.251108885,20250904135259313,None,1,-1,-1,-3,1,0,-3,-12,1757008379312417030
0,3.251273394,20250904135259313,None,4,-3,1,-1,0,-3,-1,0,1757008379312523126
0,3.26621914,20250904135259328,None,0,-15,-4,1,0,3,-1,-5,1757008379327489137
0,3.266438485,20250904135259328,None,1,12,-5,0,-3,-3,1,4,1757008379327613353
0,3.27365923,20250904135259335,None,0,-6,2,1,-3,0,-1,-2,1757008379334941625
0,3.273837328,20250904135259335,None,0,-1,-1,1,1,3,2,-1,1757008379335041284
0,3.280970335,20250904135259342,None,0,1,-1,3,1,1,-3,0,1757008379342369556
0,3.281089306,20250904135259343,None,-1,-1,-2,-2,2,-1,-4,0,1757008379342455387
0,3.296108723,20250904135259358,None,3,0,0,0,-6,-2,-1,-2,1757008379357432126
0,3.296272278,20250904135259358,None,-7,-4,2,-18,-6,1,1,-2,1757008379357546091
0,3.303613663,20250904135259365,None,1,-1,0,4,-1,1,-2,1,1757008379364921331
0,3.303780556,20250904135259365,None,1,-1,-2,2,0,-1,-2,-2,1757008379365029335
0,3.311130763,20250904135259373,None,-5,0,0,1,-1,-3,-1,-2,1757008379372421979
0,3.31131053,20250904135259373,None,2,2,0,0,0,-1,2,2,1757008379372519493
0,3.32627225,20250904135259388,None,-3,-15,-4,2,-2,0,-7,-13,1757008379387496948
0,3.326503993,20250904135259388,None,-3,22,1,-11,-2,-3,0,-1,1757008379387629270
0,3.333635807,20250904135259395,None,-2,-1,-2,3,-2,3,0,1,1757008379394936800
0,3.333799363,20250904135259395,None,-3,-11,-3,2,-2,-1,1,1,1757008379394995689
0,3.341188193,20250904135259403,None,0,-5,-3,-1,-2,-1,0,0,1757008379402472257
0,3.341404915,20250904135259403,None,1,-4,-2,-1,3,-1,-2,3,1757008379402781486
0,3.356254817,20250904135259418,None,-6,0,0,-3,-2,-2,-1,-3,1757008379417500019
0,3.356461287,20250904135259418,None,7,-4,-3,-4,1,-1,-2,-1,1757008379417646646
0,3.363136292,20250904135259425,None,0,-11,-4,-1,0,-2,-2,-4,1757008379424633026
0,3.363283635,20250904135259425,None,-2,24,6,1,3,-1,-4,-2,1757008379424735784
0,3.370932103,20250904135259432,None,2,-6,-4,1,0,0,0,-2,1757008379432314872
0,3.371055127,20250904135259432,None,-2,-3,2,-2,-1,0,-4,3,1757008379432430028
0,3.386060954,20250904135259447,None,0,-2,-6,-3,-1,-1,5,1,1757008379447335243
0,3.386240006,20250904135259448,None,-2,-1,0,0,-3,0,-4,-3,1757008379447537899
0,3.39336443,20250904135259455,None,-2,1,3,0,2,1,-1,-2,1757008379454698801
0,3.39351368,20250904135259455,None,-3,-2,-3,0,-1,-1,3,4,1757008379454800844
0,3.401001454,20250904135259462,None,1,-4,-4,-1,-2,-3,1,-3,1757008379462257862
0,3.40122962,20250904135259463,None,2,-1,-3,0,-3,-6,-1,4,1757008379462362766
0,3.416033745,20250904135259477,None,0,1,-1,-1,-1,-3,-3,-1,1757008379477251529
0,3.416214228,20250904135259478,None,4,0,0,1,0,-4,-2,1,1757008379477365732
0,3.423407793,20250904135259485,None,-6,5,1,-4,-2,1,-5,-9,1757008379484687089
0,3.423577786,20250904135259485,None,3,-1,0,-1,1,3,3,1,1757008379484779596
0,3.431210518,20250904135259493,None,-1,-2,-5,-1,0,1,-2,0,1757008379492363929
0,3.431496144,20250904135259493,None,-1,-1,-1,1,3,-1,0,1,1757008379492469072
0,3.446109772,20250904135259508,None,-7,-3,-1,-7,-13,-5,-6,-9,1757008379507530689
0,3.446261406,20250904135259508,None,3,-1,0,-7,-2,-3,-5,-5,1757008379507678508
0,3.453367472,20250904135259515,None,-3,-17,-3,3,1,-2,1,1,1757008379514919757
0,3.453452111,20250904135259515,None,-5,27,8,1,2,3,1,5,1757008379515047311
0,3.46091652,20250904135259522,None,4,1,-1,0,1,0,1,-5,1757008379522403240
0,3.461024523,20250904135259522,None,-2,-8,-3,0,-3,0,1,3,1757008379522532463
0,3.475901127,20250904135259537,None,-2,-5,-6,-3,2,2,-1,-1,1757008379537340402
0,3.47601986,20250904135259537,None,-2,12,5,-7,-3,-3,0,0,1757008379537471294
0,3.483374119,20250904135259545,None,2,2,-1,0,2,-3,2,1,1757008379544829130
0,3.483491898,20250904135259545,None,-1,-7,2,2,-2,0,1,1,1757008379544955253
0,3.490948439,20250904135259552,None,0,-3,-3,-3,2,1,-2,8,1757008379552406549
0,3.491070986,20250904135259552,None,0,1,1,0,0,0,1,9,1757008379552544116
0,3.505927086,20250904135259567,None,-1,-1,-7,3,0,-1,-5,-13,1757008379567390680
0,3.50604105,20250904135259567,None,-3,0,5,-2,-4,-3,-3,-4,1757008379567528486
0,3.5135939130000002,20250904135259575,None,0,2,-2,-2,1,1,-1,0,1757008379574937343
0,3.514060975,20250904135259576,None,3,0,1,3,2,0,1,0,1757008379575108528
0,3.521154404,20250904135259583,None,-1,-2,-4,0,1,1,-1,1,1757008379582416534
0,3.521376133,20250904135259583,None,-3,-2,-2,-1,-2,-3,-1,0,1757008379582543373
0,3.5361197,20250904135259598,None,-2,-1,-2,-1,-3,-2,0,-2,1757008379597385644
0,3.536305666,20250904135259598,None,-4,-3,3,-1,-1,2,-3,-2,1757008379597503662
0,3.543613434,20250904135259605,None,-1,-3,0,2,1,-2,-2,2,1757008379604891300
0,3.543776513,20250904135259605,None,3,-1,0,0,-1,2,0,-3,1757008379604990482
0,3.551168681,20250904135259613,None,-1,-3,-2,2,0,-1,-1,4,1757008379612424612
0,3.551386834,20250904135259613,None,-5,-4,-2,0,-1,-2,0,-7,1757008379612531185
0,3.566262484,20250904135259628,None,13,2,-5,-8,-3,-1,3,10,1757008379627526760
0,3.566615105,20250904135259628,None,-6,-31,-2,-2,-3,0,-4,-6,1757008379627663373
0,3.573562384,20250904135259635,None,1,47,8,1,-2,-1,-5,-6,1757008379634995937
0,3.5736734869999998,20250904135259635,None,1,-13,-1,3,-1,-2,1,1,1757008379635118484
0,3.581198454,20250904135259643,None,-2,-6,0,-2,2,0,1,3,1757008379642463922
0,3.581437588,20250904135259643,None,-4,-6,-4,1,-4,-1,1,4,1757008379642594337
0,3.596191407,20250904135259658,None,2,-1,-5,2,4,-2,-1,-2,1757008379657464265
0,3.596391917,20250904135259658,None,-6,-2,0,-2,-3,1,2,-2,1757008379657584667
0,3.60364604,20250904135259665,None,5,-1,1,-3,-4,-1,3,-1,1757008379664918422
0,3.6038229470000003,20250904135259665,None,2,1,-3,1,4,1,-1,-1,1757008379665036439
0,3.6111018660000003,20250904135259673,None,-4,-2,-3,0,0,-1,0,-5,1757008379672404289
0,3.61128831,20250904135259673,None,-1,-1,-1,-6,1,0,-2,-1,1757008379672502279
0,3.62619114,20250904135259688,None,2,0,1,-4,-1,1,-1,7,1757008379687476396
0,3.626517535,20250904135259688,None,-2,1,0,2,-1,0,4,-2,1757008379687590599
0,3.6335253720000003,20250904135259695,None,-1,-2,1,1,-1,0,-1,-11,1757008379694973468
0,3.633647442,20250904135259695,None,-2,0,0,-2,-1,-2,-1,-3,1757008379695098638
0,3.640920639,20250904135259702,None,-2,-2,-4,-4,-1,-3,-2,5,1757008379702423334
0,3.641023875,20250904135259702,None,0,2,-4,1,-1,-1,0,-2,1757008379702545642
0,3.656028033,20250904135259717,None,-1,-1,-1,3,-1,2,4,0,1757008379717470407
0,3.656162262,20250904135259718,None,2,-1,4,2,-2,2,0,0,1757008379717616081
0,3.66345954,20250904135259725,None,-3,-1,-7,-2,-1,-1,0,1,1757008379724941492
0,3.663570643,20250904135259725,None,-9,-4,-1,-3,0,1,-2,0,1757008379725066900
0,3.671014548,20250904135259732,None,3,-4,0,2,2,0,-1,-1,1757008379732473611
0,3.671129466,20250904135259733,None,1,8,-3,1,-2,-3,2,2,1757008379732606887
0,3.68589449,20250904135259747,None,-6,-7,-4,-7,0,-1,2,1,1757008379747470140
0,3.686021328,20250904135259747,None,1,-2,-2,-2,-1,0,-1,3,1757008379747612714
0,3.6932377819999997,20250904135259755,None,-1,-2,1,-2,2,-2,-4,-17,1757008379754802227
0,3.693360568,20250904135259755,None,1,2,-1,2,3,-1,2,9,1757008379754910469
0,3.700924159,20250904135259762,None,-2,-12,0,-3,-10,-3,0,0,1757008379762371063
0,3.701104403,20250904135259763,None,-2,16,5,1,-2,-5,-2,0,1757008379762495756
0,3.715994835,20250904135259777,None,3,9,4,2,1,3,1,-2,1757008379777406454
0,3.716214419,20250904135259778,None,1,-14,-2,-1,2,0,2,1,1757008379777551651
0,3.723451376,20250904135259785,None,-4,-4,-3,2,3,3,-1,-4,1757008379784847021
0,3.723654032,20250904135259785,None,-3,-1,-2,-2,-4,-1,-2,-2,1757008379784959316
0,3.731035471,20250904135259792,None,-1,-2,1,1,-2,-3,0,0,1757008379792483806
0,3.731212616,20250904135259793,None,1,0,0,-1,1,-2,-1,-3,1757008379792609214
0,3.746071816,20250904135259808,None,1,0,-1,1,-3,-1,0,1,1757008379807510852
0,3.746253968,20250904135259808,None,-1,0,-1,0,-6,-4,-1,1,1757008379807656288
0,3.7537019259999997,20250904135259815,None,0,0,2,2,0,0,-1,1,1757008379814953565
0,3.7540028100000002,20250904135259815,None,-2,1,-3,-3,-3,0,1,-2,1757008379815084695
0,3.760965348,20250904135259822,None,2,-4,0,2,2,-2,-9,-10,1757008379822434902
0,3.761131287,20250904135259823,None,0,1,-1,-8,-1,0,-2,-2,1757008379822554588
0,3.776037217,20250904135259837,None,-4,-7,-5,0,-2,-1,2,1,1757008379837475061
0,3.776221514,20250904135259838,None,-2,-12,0,-1,1,-3,1,-3,1757008379837600231
0,3.783474446,20250904135259845,None,3,16,3,3,7,-1,2,0,1757008379844915390
0,3.783649922,20250904135259845,None,-3,-8,-2,-2,-4,-3,-3,0,1757008379845028877
0,3.790995598,20250904135259852,None,-6,-7,-3,-3,1,0,-1,-4,1757008379852467298
0,3.791173697,20250904135259853,None,3,2,-1,-1,-1,0,1,2,1757008379852572917
0,3.8061039450000003,20250904135259868,None,-2,-2,-1,0,-1,-1,-3,8,1757008379867515802
0,3.8062818050000002,20250904135259868,None,-2,-2,-4,-1,-3,-2,2,-4,1757008379867650985
0,3.8135097030000003,20250904135259875,None,-2,-3,-3,-1,-2,-1,-4,2,1757008379874949455
0,3.813690186,20250904135259875,None,1,-1,0,-2,-3,-1,4,7,1757008379875052452
0,3.820959807,20250904135259882,None,0,0,-1,-7,-2,0,-2,-3,1757008379882463216
0,3.821146489,20250904135259883,None,-3,1,0,1,1,-1,-6,-9,1757008379882573366
0,3.8360385900000002,20250904135259897,None,-7,-2,-5,0,-1,1,-1,-4,1757008379897473335
0,3.836217404,20250904135259898,None,-1,-5,5,0,2,-3,-1,0,1757008379897604703
0,3.843449831,20250904135259905,None,1,17,1,1,-1,0,-1,2,1757008379904898405
0,3.843667984,20250904135259905,None,3,-8,-4,0,-1,1,-1,1,1757008379904997825
0,3.850979805,20250904135259912,None,-2,2,1,3,1,1,2,0,1757008379912440776
0,3.851161004,20250904135259913,None,-1,1,-3,-4,-6,-4,0,2,1757008379912549257
0,3.866060257,20250904135259927,None,-2,-4,-2,1,5,1,2,1,1757008379927480936
0,3.866267682,20250904135259928,None,-3,0,0,2,-3,-1,2,-5,1757008379927595376
0,3.873508931,20250904135259935,None,-3,-1,-5,-6,2,-1,-4,-1,1757008379934948205
0,3.873689652,20250904135259935,None,-1,-2,0,2,0,-3,-3,-1,1757008379935046672
0,3.888720036,20250904135259950,None,-2,-8,3,6,5,1,0,1,1757008379949954271
0,3.889007807,20250904135259950,None,4,17,-1,-2,-4,0,2,5,1757008379950080156
0,3.896048546,20250904135259957,None,-4,-10,-3,1,-2,-2,-5,-11,1757008379957429170
0,3.896216631,20250904135259958,None,-3,-3,-4,-2,-3,0,-3,1,1757008379957786798
0,3.903473139,20250904135259965,None,-7,-3,-3,-3,-3,-1,2,-2,1757008379964949131
0,3.9036366940000002,20250904135259965,None,3,2,0,0,-1,-3,-6,12,1757008379965143918
0,3.9186816220000003,20250904135259980,None,0,-1,-1,-7,-2,-1,0,0,1757008379980052232
0,3.9188871389999997,20250904135259980,None,-3,1,-4,1,0,-1,1,-3,1757008379980293750
0,3.92617488,20250904135259988,None,-2,-2,1,1,-1,1,-2,2,1757008379987608671
0,3.9263718130000003,20250904135259988,None,1,1,1,1,-1,1,1,2,1757008379987781286
0,3.93364358,20250904135259995,None,3,2,-1,-2,-1,-1,-1,-3,1757008379995069026
0,3.933822155,20250904135259995,None,3,-2,0,-3,1,1,2,-3,1757008379995268106
0,3.948742867,20250904135300010,None,-6,-3,-1,4,0,-2,-1,-1,1757008380010060787
0,3.948922396,20250904135300010,None,0,-7,-1,3,2,-2,-2,2,1757008380010269880
0,3.95612526,20250904135300018,None,-6,-11,-9,-4,-1,-2,0,0,1757008380017729043
0,3.956372977,20250904135300018,None,2,13,6,2,0,2,2,7,1757008380017923593
0,3.963602782,20250904135300025,None,1,5,0,-5,-2,-2,-4,-12,1757008380024892091
0,3.963768006,20250904135300025,None,-1,-11,-5,0,-1,-4,-1,-2,1757008380025010347
0,3.978649855,20250904135300040,None,0,-2,-1,2,1,3,2,2,1757008380039922475
0,3.978827715,20250904135300040,None,-1,-2,-3,-1,-3,-4,-2,1,1757008380040043115
0,3.9861714839999998,20250904135300048,None,-3,4,3,-2,1,2,-2,0,1757008380047420740
0,3.986397028,20250904135300048,None,2,0,-1,-4,1,-1,-1,1,1757008380047532796
0,3.9936208730000002,20250904135300055,None,-1,-6,-2,-5,-2,-2,-3,-2,1757008380054880857
0,3.993785859,20250904135300055,None,-4,8,2,-1,1,-2,-3,-2,1757008380054956436
0,4.008622408,20250904135300070,None,4,0,-3,1,-1,0,-1,-1,1757008380069884777
0,4.008829356,20250904135300070,None,-1,-6,0,-5,-3,-3,0,-3,1757008380070017337
0,4.016056538,20250904135300077,None,-7,-3,0,-5,-2,-6,-1,-2,1757008380077364921
0,4.016226054,20250904135300078,None,2,3,-1,-1,1,0,0,6,1757008380077466249
0,4.023686648,20250904135300085,None,0,-2,1,7,-1,0,1,3,1757008380084897041
0,4.023931742,20250904135300085,None,-3,-2,-1,-2,-2,0,2,-2,1757008380085043907
0,4.038911105,20250904135300100,None,3,4,-2,-2,-1,-2,-3,-9,1757008380100143432
0,4.039092064,20250904135300101,None,-5,-5,-2,-2,-1,2,-3,-5,1757008380100372791
0,4.046134949,20250904135300108,None,4,-2,-7,-2,0,-1,5,3,1757008380107518672
0,4.046304465,20250904135300108,None,4,2,6,0,2,-1,-2,2,1757008380107684135
0,4.053407193,20250904135300115,None,1,1,0,2,-3,0,-3,1,1757008380114918947
0,4.053511143,20250904135300115,None,-3,-4,-4,2,-1,-2,-4,2,1757008380115046977
0,4.068729163,20250904135300130,None,2,-2,3,-7,-3,-3,0,-1,1757008380129936456
0,4.068928004,20250904135300130,None,-3,-14,-3,1,-2,-2,-2,-1,1757008380130074977
0,4.076130629,20250904135300138,None,-1,24,4,1,-1,1,2,1,1757008380137400150
0,4.076364279,20250904135300138,None,0,-6,-5,-1,-1,-1,-5,-5,1757008380137516498
0,4.083603621,20250904135300145,None,2,-8,-1,0,1,1,4,2,1757008380144850015
0,4.083780289,20250904135300145,None,-1,1,1,-1,-1,-1,-3,0,1757008380144901037
0,4.098614216,20250904135300160,None,-3,-8,-5,-1,-1,-3,1,2,1757008380159883260
0,4.098802567,20250904135300160,None,-1,14,2,-3,-5,-1,-3,-3,1757008380159983873
0,4.106107235,20250904135300168,None,-5,-2,-4,-6,-1,0,-2,-9,1757008380167386531
0,4.106317997,20250904135300168,None,3,-7,-1,3,-3,-2,0,1,1757008380167482614
0,4.113569737,20250904135300175,None,-7,-4,-1,-1,-1,-3,0,1,1757008380174857378
0,4.113741875,20250904135300175,None,-2,-3,-3,2,-2,-2,2,0,1757008380174947261
0,4.128707886,20250904135300190,None,0,1,3,-5,0,1,0,-2,1757008380189944505
0,4.128902913,20250904135300190,None,-3,4,-3,0,-1,-3,0,-6,1757008380190063953
0,4.13610816,20250904135300198,None,0,2,1,0,3,-1,-1,-3,1757008380197401523
0,4.136304856,20250904135300198,None,-3,-1,-2,4,-6,-3,1,-8,1757008380197503328
0,4.143625021,20250904135300205,None,3,0,0,-4,-1,0,-3,-3,1757008380204858303
0,4.143772603,20250904135300205,None,-4,-3,-3,1,-1,1,-3,2,1757008380204955577
0,4.158531905,20250904135300220,None,2,-2,0,-4,-3,-4,-1,1,1757008380219913005
0,4.158688546,20250904135300220,None,-1,-2,2,-1,-3,0,-1,-3,1757008380220050573
0,4.16568923,20250904135300227,None,2,1,-1,2,-1,-1,0,-1,1757008380227328300
0,4.16576171,20250904135300227,None,3,-4,0,-1,-2,0,5,9,1757008380227428436
0,4.17332244,20250904135300235,None,-2,2,-5,-2,3,0,-3,-12,1757008380234851360
0,4.173445464,20250904135300235,None,0,-6,-5,2,0,-2,-3,-3,1757008380234973430
0,4.188417674,20250904135300250,None,0,-6,-2,-5,1,-2,1,4,1757008380249926805
0,4.188539029,20250904135300250,None,0,15,2,-4,-3,-3,-4,4,1757008380250053644
0,4.195942164,20250904135300257,None,-1,-8,1,1,2,0,3,4,1757008380257432460
0,4.196069956,20250904135300257,None,-1,-7,0,3,1,-1,-1,0,1757008380257562637
0,4.203342915,20250904135300265,None,-2,-15,-4,0,-1,-3,-3,0,1757008380264882326
0,4.203449727,20250904135300265,None,-2,19,1,0,-1,1,-4,-1,1757008380265001535
0,4.218798876,20250904135300280,None,-3,-11,-2,0,1,0,-1,-3,1757008380279971361
0,4.218980551,20250904135300280,None,-1,-1,-1,-2,2,-2,0,0,1757008380280128955
0,4.226193667,20250904135300288,None,0,-2,-5,2,0,5,-3,-3,1757008380287612199
0,4.226389885,20250904135300288,None,-3,-3,2,-1,-3,-3,1,-2,1757008380287789821
0,4.233711958,20250904135300295,None,-1,-2,-3,3,-2,0,2,7,1757008380295093774
0,4.233893156,20250904135300295,None,-2,2,-1,-1,0,2,-3,-15,1757008380295289516
0,4.248633624,20250904135300310,None,3,4,2,1,2,-1,-3,7,1757008380310020208
0,4.24881363,20250904135300310,None,-2,-3,-2,1,6,1,1,0,1757008380310206413
0,4.256415844,20250904135300318,None,-4,-3,2,-5,-4,-1,1,-1,1757008380317643880
0,4.25663519,20250904135300318,None,2,0,-2,0,-2,-2,-2,2,1757008380317773103
0,4.263750315,20250904135300325,None,-3,-1,-1,6,1,2,0,-2,1757008380325002431
0,4.263972044,20250904135300325,None,-1,-2,0,-1,-3,1,-2,-5,1757008380325164318
0,4.278436423,20250904135300340,None,0,2,-3,-5,-2,-1,1,1,1757008380339815616
0,4.278593541,20250904135300340,None,-4,-10,-8,-2,-1,2,0,4,1757008380339967250
0,4.285872221,20250904135300347,None,-1,10,6,1,-1,-2,0,1,1757008380347282171
0,4.286091805,20250904135300348,None,-4,6,1,1,-2,0,-1,-7,1757008380347419023
0,4.293304205,20250904135300355,None,1,-11,-5,-1,-1,-2,1,-1,1757008380354754209
0,4.293522835,20250904135300355,None,0,-3,-3,-5,-5,-1,-3,-3,1757008380354875564
0,4.308488846,20250904135300370,None,0,-1,0,-1,1,2,-1,-2,1757008380369852781
0,4.308666945,20250904135300370,None,2,0,-3,0,-1,0,0,-2,1757008380369960784
0,4.315814496,20250904135300377,None,-2,-18,-1,-2,-2,-1,-4,1,1757008380377280950
0,4.31597972,20250904135300377,None,0,17,0,-1,-4,-1,-3,-1,1757008380377379417
0,4.323679686,20250904135300385,None,3,-7,0,4,-1,2,3,4,1757008380384808778
0,4.323940039,20250904135300385,None,-8,0,-2,-3,0,-2,2,-5,1757008380384910821
0,4.33840704,20250904135300400,None,-2,0,-1,-1,-2,-1,-5,-8,1757008380399752378
0,4.33858037,20250904135300400,None,1,-2,-4,-2,0,0,-1,-1,1757008380399847030
0,4.345934153,20250904135300407,None,0,-4,2,-1,2,1,-1,2,1757008380407424926
0,4.346076727,20250904135300407,None,-3,-1,-3,-5,-4,-1,-2,-1,1757008380407535791
0,4.353367329,20250904135300415,None,2,1,0,-2,-4,-3,-4,-3,1757008380414851188
0,4.353472472,20250904135300415,None,1,-1,-1,-4,-1,0,1,2,1757008380414951562
0,4.368610859,20250904135300430,None,-2,0,0,-1,1,2,0,-1,1757008380429858922
0,4.36877513,20250904135300430,None,-1,0,0,3,4,0,-2,1,1757008380430024147
0,4.376257658,20250904135300438,None,-1,1,-3,0,0,0,0,2,1757008380437448501
0,4.376753331,20250904135300438,None,-5,-1,-2,-3,0,-1,4,-3,1757008380437637090
0,4.383319855,20250904135300445,None,0,-3,-3,-1,-3,-2,-4,-1,1757008380444778203
0,4.383426905,20250904135300445,None,-2,-1,2,-2,-3,-3,-1,3,1757008380444899320
0,4.398700238,20250904135300460,None,-3,0,1,1,-1,-1,-2,0,1757008380460006713
0,4.398902655,20250904135300460,None,-1,-6,-1,-1,-1,-2,0,1,1757008380460197448
0,4.406218529,20250904135300468,None,-3,-2,2,-2,-1,0,1,2,1757008380467464685
0,4.406413079,20250904135300468,None,-1,0,0,-8,0,1,-6,-8,1757008380467641115
0,4.4137685300000005,20250904135300475,None,-2,-1,-6,2,-2,-2,-3,0,1757008380474953413
0,4.413933993,20250904135300475,None,-4,-12,-1,5,1,1,1,1,1757008380475129604
0,4.428944588,20250904135300490,None,9,15,2,-3,-5,-1,-2,0,1757008380490033149
0,4.429125786,20250904135300491,None,1,1,1,-5,-1,2,1,1,1757008380490219831
0,4.4364366539999995,20250904135300498,None,-3,-14,-2,3,2,2,0,0,1757008380497565507
0,4.436626435,20250904135300498,None,-1,-1,-4,-1,-4,-1,0,-2,1757008380497757196
0,4.443859101,20250904135300505,None,0,2,-1,1,2,2,-2,-4,1757008380505066633
0,4.444053412,20250904135300505,None,1,-2,0,1,-4,-2,-1,-1,1757008380505271911
0,4.458553315,20250904135300520,None,0,3,2,-2,-1,-1,0,0,1757008380519920825
0,4.458690644,20250904135300520,None,1,-2,0,-5,1,-1,1,0,1757008380520089864
0,4.465777398,20250904135300527,None,-5,0,-2,0,1,0,-1,-1,1757008380527430057
0,4.465880156,20250904135300527,None,-8,0,0,2,-4,0,-2,-5,1757008380527557134
0,4.473094225,20250904135300535,None,-1,3,2,-3,-1,-1,-1,4,1757008380534707546
0,4.473193884,20250904135300535,None,0,-4,1,0,1,-1,-1,-8,1757008380534835815
0,4.488231659,20250904135300550,None,-2,-4,-1,0,0,1,-3,-9,1757008380549743890
0,4.488413334,20250904135300550,None,1,-4,-2,-2,2,-6,0,3,1757008380549869298
0,4.495604754,20250904135300557,None,1,3,9,4,0,1,2,4,1757008380557266712
0,4.495724678,20250904135300557,None,-2,0,-5,-1,-1,-3,-1,0,1757008380557383060
0,4.50332141,20250904135300565,None,0,-3,-1,-4,0,-1,0,-2,1757008380564747810
0,4.503564358,20250904135300565,None,0,-1,-1,2,4,2,-3,-1,1757008380564875125
0,4.5186390880000005,20250904135300580,None,0,3,0,-1,-2,-3,-2,-2,1757008380579975843
0,4.5188362600000005,20250904135300580,None,-1,-3,1,-4,2,0,-2,0,1757008380580181360
0,4.52585888,20250904135300587,None,-2,-3,-1,0,-5,-2,-4,-1,1757008380587297677
0,4.5260505680000005,20250904135300587,None,-4,-14,-7,-1,-4,-3,0,1,1757008380587416410
0,4.533305645,20250904135300595,None,6,25,4,-4,-1,0,1,2,1757008380594748735
0,4.533547402,20250904135300595,None,1,-21,-2,3,3,1,-2,-3,1757008380594856977
0,4.548414231,20250904135300610,None,1,16,5,-7,-4,-1,1,1,1757008380609796047
0,4.54861188,20250904135300610,None,-2,-11,-1,-3,-2,-2,-2,-6,1757008380609937429
0,4.556141377,20250904135300618,None,-1,-8,-1,3,2,2,-3,7,1757008380617640495
0,4.556395531,20250904135300618,None,-1,0,1,3,-1,-3,-6,-6,1757008380618025779
0,4.563545466,20250904135300625,None,-4,-1,-3,-2,-4,1,-4,-13,1757008380624935626
0,4.563711882,20250904135300625,None,-2,-3,-4,0,-4,-1,-4,-1,1757008380625114917
0,4.578556538,20250904135300640,None,2,1,0,5,-2,-1,1,2,1757008380639930486
0,4.578729392,20250904135300640,None,1,1,0,-2,0,-3,-3,2,1757008380640115976
0,4.586068869,20250904135300647,None,1,-2,-2,-3,-2,0,0,4,1757008380647489309
0,4.586232901,20250904135300648,None,-6,-6,-3,-1,-2,1,1,-3,1757008380647662401
0,4.593593359,20250904135300655,None,0,2,2,0,-3,-1,-1,0,1757008380654973745
0,4.593769551,20250904135300655,None,-3,1,-1,0,3,-1,1,1,1757008380655161142
0,4.608565808,20250904135300670,None,-5,-4,-1,-4,-6,-1,-2,0,1757008380669924259
0,4.608731032,20250904135300670,None,-1,-1,-3,-6,2,-2,0,-2,1757008380670117139
0,4.616013289,20250904135300677,None,-2,2,4,5,-1,-3,1,-1,1757008380677423954
0,4.616176367,20250904135300678,None,-3,2,-1,1,-2,1,-3,-2,1757008380677593231
0,4.623499871,20250904135300685,None,2,-1,0,-2,-3,-2,-4,1,1757008380684916734
0,4.623672009,20250904135300685,None,-3,-2,2,5,1,-1,-2,-4,1757008380685091733
0,4.638556958,20250904135300700,None,5,2,0,-3,-1,-2,0,-5,1757008380699948787
0,4.638732434,20250904135300700,None,-4,-7,-3,-1,-2,0,1,0,1757008380700126409
0,4.646242619,20250904135300708,None,1,17,1,-3,2,1,-2,10,1757008380707642078
0,4.646460295,20250904135300708,None,1,-1,0,3,1,1,-4,-8,1757008380707821846
0,4.6537332540000005,20250904135300715,None,-3,-1,-1,-1,-4,-3,-2,0,1757008380715109825
0,4.6539123060000005,20250904135300715,None,-1,-5,-6,-3,-2,-3,-2,-2,1757008380715303659
0,4.668782473,20250904135300730,None,-3,-1,-3,1,0,-2,-1,2,1757008380729996204
0,4.668951989,20250904135300730,None,-1,-1,-1,3,-2,-1,-2,1,1757008380730159759
0,4.676321269,20250904135300738,None,-4,0,2,1,0,2,-2,-1,1757008380737559795
0,4.676532031,20250904135300738,None,4,1,-1,2,-1,-1,-1,-4,1757008380737733364
0,4.683920384,20250904135300745,None,-4,1,-1,-1,0,0,1,2,1757008380745039939
0,4.684087754,20250904135300746,None,-3,-7,-5,-6,-2,-1,1,-2,1757008380745218753
0,4.6990051269999995,20250904135300760,None,-3,-10,-3,2,3,-1,-1,1,1757008380760143518
0,4.699219227,20250904135300761,None,0,21,6,1,1,-1,-2,-3,1757008380760496616
0,4.7067585,20250904135300768,None,0,5,1,2,-4,-1,-3,-1,1757008380767823696
0,4.706971407,20250904135300768,None,-3,-10,-4,-3,-3,2,-2,-4,1757008380768030405
0,4.714388609,20250904135300776,None,1,-1,2,1,0,-1,2,-4,1757008380775359392
0,4.714635611,20250904135300776,None,-3,0,3,-1,-1,-3,-1,-2,1757008380775556564
0,4.729135991,20250904135300791,None,-1,-1,0,-1,0,-2,0,-3,1757008380790190935
0,4.72939086,20250904135300791,None,-1,-4,-3,-2,1,-2,5,7,1757008380790552377
0,4.7365925319999995,20250904135300798,None,1,-3,-3,0,-1,1,-1,-5,1757008380797680139
0,4.73678875,20250904135300798,None,-5,1,2,-1,1,0,-2,-4,1757008380797878265
0,4.744586707,20250904135300806,None,4,0,-4,0,-4,-1,0,6,1757008380805445194
0,4.744875908,20250904135300806,None,0,2,-4,4,0,0,-1,4,1757008380805685043
0,4.759166003,20250904135300821,None,-6,-3,-1,-3,-4,-2,-2,-4,1757008380820160150
0,4.7594285020000004,20250904135300821,None,4,4,5,-3,-1,-3,0,1,1757008380820411205
0,4.766272784,20250904135300828,None,1,0,-2,1,-3,1,0,-2,1757008380827585220
0,4.766444922,20250904135300828,None,0,-4,3,-3,1,-1,1,-3,1757008380827752590
0,4.773842335,20250904135300835,None,1,6,1,-1,0,0,-1,2,1757008380835085630
0,4.774026156,20250904135300835,None,-6,-3,0,-1,1,4,0,5,1757008380835378885
0,4.788586617,20250904135300850,None,-1,-5,-3,-4,-5,-2,-6,-7,1757008380849950313
0,4.788778067,20250904135300850,None,1,-1,-4,1,0,-4,-2,-2,1757008380850110530
0,4.795951367,20250904135300857,None,-4,-2,0,-3,2,-2,0,-1,1757008380857388257
0,4.796149016,20250904135300858,None,-5,-2,-3,-2,0,-2,1,0,1757008380857508420
0,4.803447962,20250904135300865,None,1,4,1,-2,1,-1,2,6,1757008380864856004
0,4.803614617,20250904135300865,None,1,0,-1,4,-2,0,1,-4,1757008380864966869
0,4.818491459,20250904135300880,None,1,-2,-3,-12,-9,-2,-3,-12,1757008380879892826
0,4.818688393,20250904135300880,None,-2,0,1,3,1,-1,-4,-1,1757008380880004167
0,4.825950146,20250904135300887,None,-4,-6,-9,-1,1,0,2,1,1757008380887399911
0,4.826129199,20250904135300888,None,-1,0,3,2,-1,-2,0,0,1757008380887530565
0,4.840984822,20250904135300902,None,-2,14,3,-1,2,1,0,1,1757008380902424097
0,4.84117651,20250904135300903,None,0,-11,-3,-2,-2,-1,0,0,1757008380902797222
0,4.848823309,20250904135300910,None,-1,-3,-4,1,-3,-2,0,-2,1757008380910257577
0,4.849530459,20250904135300911,None,2,0,-1,1,0,0,3,0,1757008380910783529
0,4.856444359,20250904135300918,None,2,0,0,2,0,-1,2,-6,1757008380917677402
0,4.856621027,20250904135300918,None,-2,-1,2,0,3,-5,-1,-1,1757008380917830467
0,4.871310711,20250904135300933,None,-4,-16,-1,-2,-1,-3,-3,-3,1757008380932629823
0,4.871543646,20250904135300933,None,4,25,6,2,-2,0,-1,1,1757008380932827949
0,4.878775597,20250904135300940,None,-2,-4,0,2,0,-2,2,1,1757008380940125465
0,4.878956557,20250904135300940,None,-4,-3,-1,-2,0,1,-2,1,1757008380940327882
0,4.886108399,20250904135300948,None,-4,-5,-5,-4,-2,-1,0,1,1757008380947535514
0,4.886296988,20250904135300948,None,2,1,-1,-4,1,1,-3,-9,1757008380947708606
0,4.901215315,20250904135300963,None,-1,-1,-1,2,-3,-1,-1,0,1757008380962577581
0,4.901420355,20250904135300963,None,-1,-2,-2,2,-2,-1,1,-2,1757008380962746858
0,4.908680439,20250904135300970,None,-1,-2,-2,0,-1,0,0,1,1757008380970048189
0,4.9089298249999995,20250904135300970,None,2,-2,-6,-4,2,-2,0,1,1757008380970244646
0,4.916148186,20250904135300978,None,-2,-6,2,-2,-3,-2,-3,2,1757008380977564573
0,4.916312695,20250904135300978,None,0,5,1,-5,-1,0,-1,-2,1757008380977745294
0,4.931237698,20250904135300993,None,4,-1,-5,3,-2,-2,1,5,1757008380992589235
0,4.931483031,20250904135300993,None,-1,-4,-4,-3,1,1,-1,-6,1757008380992810010
0,4.938626767,20250904135301000,None,2,-3,-3,2,3,2,2,8,1757008381000041961
0,4.93881464,20250904135301000,None,0,-2,1,-2,-2,-4,1,-2,1757008381000219345
0,4.946146489,20250904135301008,None,2,2,1,-4,-3,1,-1,2,1757008381007560253
0,4.946357012,20250904135301008,None,0,2,-1,4,2,-2,0,-1,1757008381007748603
0,4.961216212,20250904135301023,None,-1,-3,1,-6,-2,0,-1,-1,1757008381022606134
0,4.961432219,20250904135301023,None,-1,-2,-2,1,-3,-2,-2,1,1757008381022808790
0,4.968715668,20250904135301030,None,-4,-8,2,4,0,-3,3,0,1757008381030090570
0,4.968893767,20250904135301030,None,1,15,0,-3,-2,-2,0,-3,1757008381030287504
0,4.976219178,20250904135301038,None,2,-10,-1,1,0,-1,3,6,1757008381037625312
0,4.976433039,20250904135301038,None,-6,-2,-5,1,4,-1,-2,-10,1757008381037805080
0,4.991064787,20250904135301053,None,-5,2,2,0,0,-1,-6,-5,1757008381052465915
0,4.991272212,20250904135301053,None,-6,3,-1,3,-2,-1,1,-1,1757008381052642583
0,4.998372078,20250904135301060,None,0,-8,-5,1,1,-2,0,4,1757008381059818744
0,4.998542309,20250904135301060,None,0,-1,-2,-2,-3,-1,-1,-1,1757008381059925317
0,5.005899668,20250904135301067,None,-4,-1,1,-5,-1,1,0,-1,1757008381067394018
0,5.006078959,20250904135301067,None,-3,-3,-5,0,-1,-4,-4,-3,1757008381067526578
0,5.02083993,20250904135301082,None,-2,4,2,0,0,0,-3,1,1757008381082374095
0,5.021012068,20250904135301082,None,2,-3,2,-2,1,0,-1,-2,1757008381082479000
0,5.028461695,20250904135301090,None,0,1,0,-2,-1,-2,-1,1,1757008381089865922
0,5.028640509,20250904135301090,None,-2,-3,-5,1,0,-3,0,1,1757008381089971542
0,5.035917759,20250904135301097,None,-3,-1,0,-1,-4,-1,-1,-2,1757008381097388982
0,5.036095143,20250904135301098,None,-3,-1,-1,-1,3,-1,0,-1,1757008381097490787
0,5.050894022,20250904135301112,None,-2,0,-2,-2,-3,-2,-4,5,1757008381112367391
0,5.051057816,20250904135301112,None,2,0,0,-2,-2,4,1,-3,1757008381112476825
0,5.058583022,20250904135301120,None,0,-2,0,-3,-2,-2,-2,-3,1757008381119974613
0,5.058759928,20250904135301120,None,-3,-3,0,-2,-3,-2,0,-10,1757008381120149850
0,5.065889359,20250904135301127,None,0,-3,-2,2,0,2,4,1,1757008381127367734
0,5.066068411,20250904135301127,None,1,1,1,-3,-1,-2,-1,3,1757008381127475738
0,5.080981732,20250904135301142,None,-4,-6,-1,1,-6,-1,-3,-1,1757008381142382621
0,5.08122325,20250904135301143,None,-3,-6,-8,4,7,0,-1,1,1757008381142488718
0,5.088181019,20250904135301150,None,-3,7,2,5,-1,-1,2,-1,1757008381149882555
0,5.088267565,20250904135301150,None,2,11,-1,-18,-4,1,1,-1,1757008381149981498
0,5.096014739,20250904135301157,None,-2,-11,-4,-4,0,2,-1,0,1757008381157397747
0,5.096183062,20250904135301158,None,1,-1,-1,1,-3,0,2,-1,1757008381157495737
0,5.110965491,20250904135301172,None,0,3,2,-2,1,0,1,-2,1757008381172358751
0,5.11113596,20250904135301173,None,-1,-7,-1,2,-1,-2,-1,-4,1757008381172457456
0,5.118475676,20250904135301180,None,-3,-2,-3,-1,0,1,-2,-2,1757008381179851293
0,5.118645668,20250904135301180,None,0,0,-1,-3,-3,-2,2,4,1757008381179942607
0,5.126042605,20250904135301187,None,6,1,3,-3,2,-2,1,-2,1757008381187333345
0,5.126222134,20250904135301188,None,0,-2,-1,4,2,1,1,5,1757008381187441825
0,5.141159296,20250904135301203,None,-5,-5,-3,-2,-1,2,-2,-7,1757008381202423572
0,5.14140749,20250904135301203,None,-3,0,-1,-1,-3,-3,-8,-7,1757008381202553033
0,5.148627043,20250904135301210,None,0,-1,-2,1,0,-1,-1,1,1757008381209874391
0,5.148802996,20250904135301210,None,-1,1,0,2,1,0,0,1,1757008381209978580
0,5.156154395,20250904135301218,None,-2,-2,0,-5,-1,-1,1,-1,1757008381217403173
0,5.156393528,20250904135301218,None,-1,-1,-2,-1,1,-1,-2,-1,1757008381217505455
0,5.171108485,20250904135301233,None,-1,-1,-1,-1,0,-2,3,-1,1757008381232363462
0,5.171305418,20250904135301233,None,-1,2,1,-2,0,-2,-2,-1,1757008381232470512
0,5.178303004,20250904135301240,None,0,-4,-1,-1,-3,-1,-3,12,1757008381239792108
0,5.178462744,20250904135301240,None,3,1,0,-1,-4,-2,0,1,1757008381239902019
0,5.186015606,20250904135301247,None,0,0,-1,0,0,2,-1,-9,1757008381247308015
0,5.186187029,20250904135301248,None,-2,-3,-3,0,-5,-1,-3,-1,1757008381247400283
0,5.201121808,20250904135301263,None,-1,-20,-2,0,1,-2,-4,-5,1757008381262378215
0,5.201394558,20250904135301263,None,-3,24,1,1,-1,0,-1,0,1757008381262474536
0,5.20868826,20250904135301270,None,2,-4,-3,-2,1,-1,-2,1,1757008381269935369
0,5.208832741,20250904135301270,None,0,-9,-2,5,1,1,1,1,1757008381270103454
0,5.21604538,20250904135301277,None,-3,8,-3,-3,-2,-5,1,8,1757008381277337312
0,5.216212273,20250904135301278,None,-2,-11,-1,2,0,0,-3,-10,1757008381277440547
0,5.231239319,20250904135301293,None,-3,-4,-6,0,0,-1,-3,-4,1757008381292443752
0,5.2314744,20250904135301293,None,-3,5,4,-2,-1,0,-1,3,1757008381292617797
0,5.238576413,20250904135301300,None,2,-1,-2,-1,-2,1,-2,1,1757008381299825668
0,5.238774062,20250904135301300,None,2,-2,-1,0,4,-1,0,-2,1757008381299927234
0,5.245893717,20250904135301307,None,-3,-3,0,2,-1,0,-2,-1,1757008381307384490
0,5.246015311,20250904135301307,None,-4,1,-3,-3,1,1,0,0,1757008381307512044
0,5.260899544,20250904135301322,None,-3,-3,-5,-2,-4,-1,-2,-2,1757008381322408914
0,5.261010409,20250904135301322,None,1,-1,-1,-1,-3,0,-1,3,1757008381322537422
0,5.268288374,20250904135301330,None,0,-2,1,2,0,0,-1,-1,1757008381329869985
0,5.268396616,20250904135301330,None,-3,0,0,1,-2,-3,0,0,1757008381329976320
0,5.275840521,20250904135301337,None,-1,-2,-1,-1,-2,0,-1,2,1757008381337367057
0,5.275963068,20250904135301337,None,3,4,2,-4,0,0,1,-1,1757008381337487697
0,5.290811539,20250904135301352,None,-1,4,5,-5,-4,-1,-1,1,1757008381352352857
0,5.290912152,20250904135301352,None,-3,0,-3,4,-1,-4,2,9,1757008381352473258
0,5.298255682,20250904135301360,None,-4,-1,2,0,2,2,-3,-11,1757008381359835147
0,5.298375369,20250904135301360,None,-2,-6,-1,-3,1,0,-4,-11,1757008381359906196
0,5.305790902,20250904135301367,None,-1,-9,-2,0,-2,-1,1,1,1757008381367352485
0,5.305883646,20250904135301367,None,2,6,5,-2,0,0,1,3,1757008381367467403
0,5.3207480910000005,20250904135301382,None,3,1,5,2,3,-2,-2,6,1757008381382381677
0,5.32085681,20250904135301382,None,-1,7,-4,0,-2,0,1,-4,1757008381382509469
0,5.328698874,20250904135301390,None,0,-13,-4,-5,-3,0,1,2,1757008381390106439
0,5.32879138,20250904135301390,None,-1,1,-4,0,1,-2,-1,-3,1757008381390293598
0,5.336117506,20250904135301398,None,-1,0,-2,3,1,-2,1,-1,1757008381397615671
0,5.336186171,20250904135301398,None,-1,-5,-6,-16,-5,0,-1,-2,1757008381397799968
0,5.351245404,20250904135301413,None,0,-4,-1,-4,-1,0,0,-1,1757008381412596702
0,5.351336003,20250904135301413,None,2,4,2,6,1,2,-1,-1,1757008381412782669
0,5.35850215,20250904135301420,None,-3,-4,-3,1,-3,-1,-2,-1,1757008381419966936
0,5.358569861,20250904135301420,None,1,1,0,-4,-2,-1,-1,1,1757008381420148134
0,5.366049529,20250904135301427,None,1,-1,0,-5,-1,1,0,-1,1757008381427533626
0,5.366103888,20250904135301428,None,0,-2,-5,2,0,-1,-4,1,1757008381427701234
0,5.3811340340000005,20250904135301443,None,-1,-3,-1,-1,-3,-6,2,3,1757008381442581176
0,5.381254197,20250904135301443,None,-5,1,-3,-3,-3,-4,-4,-9,1757008381442803382
0,5.38863802,20250904135301450,None,-2,-3,-1,-4,-3,-1,3,0,1757008381450102567
0,5.388705969,20250904135301450,None,0,1,-1,1,-1,1,-2,-10,1757008381450292825
0,5.396173239,20250904135301458,None,0,1,-3,1,4,2,-2,-1,1757008381457577705
0,5.396286965,20250904135301458,None,0,-4,1,-6,-8,-4,1,0,1757008381457750797
0,5.411134005,20250904135301473,None,2,-1,1,1,3,1,-1,1,1757008381472592592
0,5.4112172130000005,20250904135301473,None,-4,-1,0,-3,-1,0,2,-5,1757008381472769975
0,5.41855073,20250904135301480,None,-4,-27,-5,-1,1,0,-5,-4,1757008381479999542
0,5.418616057,20250904135301480,None,4,42,9,2,0,3,3,4,1757008381480179309
0,5.426091433,20250904135301488,None,-2,-8,1,4,-1,1,-2,-4,1757008381487559795
0,5.426172734,20250904135301488,None,-3,-7,-6,-3,2,-1,-2,0,1757008381487743139
0,5.441136837,20250904135301503,None,0,-1,-3,-1,1,-2,1,-4,1757008381502614974
0,5.441198111,20250904135301503,None,1,-3,-3,-2,1,1,-4,1,1757008381502794742
0,5.448692561,20250904135301510,None,-1,-2,-2,3,-1,-1,-4,-3,1757008381510143518
0,5.448749781,20250904135301510,None,-3,1,-3,-1,-1,-3,0,1,1757008381510349035
0,5.456447125,20250904135301518,None,1,-2,-2,1,4,0,0,-1,1757008381517630100
0,5.456616879,20250904135301518,None,0,2,4,0,-5,-2,2,8,1757008381517799139
0,5.471695185,20250904135301533,None,1,3,2,-5,-4,0,-1,-9,1757008381532871961
0,5.471892119,20250904135301533,None,1,-2,-2,1,-1,-1,-4,-5,1757008381533088445
0,5.478818894,20250904135301540,None,-1,0,-3,2,-2,-2,1,2,1757008381540165185
0,5.478930474,20250904135301540,None,0,-4,-1,2,-2,-1,-1,-3,1757008381540322303
0,5.48640585,20250904135301548,None,-2,-1,2,0,-1,-1,-3,-2,1757008381547648191
0,5.48657465,20250904135301548,None,2,3,2,8,2,0,-1,-1,1757008381547837018
0,5.501525641,20250904135301563,None,1,3,-1,2,1,1,0,1,1757008381562736988
0,5.501718283,20250904135301563,None,-9,-4,-4,-1,-1,-2,0,0,1757008381562931060
0,5.509431839,20250904135301571,None,6,2,2,-4,-2,1,-3,0,1757008381570456266
0,5.509666443,20250904135301571,None,-1,-1,-2,-2,-4,-1,0,4,1757008381570926189
0,5.516446591,20250904135301578,None,-4,1,3,-1,-4,-1,1,-8,1757008381577612638
0,5.516668082,20250904135301578,None,0,0,2,1,2,2,1,-1,1757008381577799797
0,5.530859709,20250904135301592,None,2,-1,-2,-1,-1,-1,-3,10,1757008381592356443
0,5.530969382,20250904135301592,None,-2,-3,-2,0,4,-1,0,-1,1757008381592473030
0,5.538629055,20250904135301600,None,-3,-11,-1,-3,-2,-1,-1,-1,1757008381600088596
0,5.538714171,20250904135301600,None,0,7,1,-2,1,-1,-1,0,1757008381600282430
0,5.54599762,20250904135301607,None,2,28,4,-1,-2,0,2,-1,1757008381607515811
0,5.546124459,20250904135301608,None,-2,-15,-5,3,1,-2,2,3,1757008381607628345
0,5.561512471,20250904135301623,None,-4,-7,0,-1,-1,-2,2,0,1757008381622847080
0,5.56167388,20250904135301623,None,0,-1,2,8,-2,1,0,1,1757008381623028993
0,5.568437815,20250904135301630,None,1,-2,-4,-1,1,2,-1,-10,1757008381629949331
0,5.5686249740000004,20250904135301630,None,0,1,1,-3,0,-1,0,-4,1757008381630108118
0,5.575816632,20250904135301637,None,1,0,-2,-1,1,2,0,1,1757008381637391090
0,5.575934649,20250904135301637,None,-1,-1,3,6,2,1,-2,0,1757008381637543439
0,5.590758086,20250904135301652,None,1,3,-3,-18,-9,-4,-2,-2,1757008381652298450
0,5.590905667,20250904135301652,None,0,-3,-3,0,1,-1,2,1,1757008381652446508
0,5.598010064,20250904135301659,None,0,1,-1,1,0,-1,-1,1,1757008381659689426
0,5.598123789,20250904135301660,None,-3,0,1,2,1,-2,-3,-8,1757008381659804821
0,5.605633259,20250904135301667,None,-1,-3,-2,0,0,1,-1,-2,1757008381667215824
0,5.605768204,20250904135301667,None,1,-5,-4,-2,-1,-3,-2,-1,1757008381667342662
0,5.620698691,20250904135301682,None,-1,2,-1,1,-1,-2,2,0,1757008381682336091
0,5.620858431,20250904135301682,None,1,-2,-5,-1,-2,0,-1,1,1757008381682459354
0,5.628091097,20250904135301690,None,-2,-5,-1,-5,-3,-1,-1,-4,1757008381689798831
0,5.628203154,20250904135301690,None,-1,1,-1,1,1,1,0,-1,1757008381689949274
0,5.635705471,20250904135301697,None,-2,1,-1,0,-4,-1,-3,-2,1757008381697243213
0,5.6359477049999995,20250904135301697,None,-1,0,-1,-1,-1,-2,-1,-2,1757008381697637319
0,5.651203871,20250904135301713,None,-6,-1,-1,-2,-2,-1,0,-2,1757008381712588071
0,5.6514368059999995,20250904135301713,None,5,-18,2,-5,-2,1,5,11,1757008381712781906
0,5.658509255,20250904135301720,None,1,14,6,2,2,-1,-3,-10,1757008381719857692
0,5.658714295,20250904135301720,None,-2,10,0,2,-1,1,-1,-2,1757008381720002889
0,5.665564537,20250904135301727,None,0,-15,0,0,0,0,-1,3,1757008381727121353
0,5.665722371,20250904135301727,None,-1,-1,-2,0,0,-1,-2,1,1757008381727218627
0,5.68112588,20250904135301743,None,-1,-1,0,0,0,-2,3,1,1757008381742401599
0,5.681377411,20250904135301743,None,1,-1,-6,-4,4,-1,-3,0,1757008381742623090
0,5.688473225,20250904135301750,None,-1,0,2,1,0,-1,-5,-2,1757008381749999761
0,5.688635111,20250904135301750,None,-2,0,2,-3,-2,-1,-2,0,1757008381750211238
0,5.695853711,20250904135301757,None,0,-1,-1,-3,-2,-4,2,-2,1757008381757508516
0,5.695946694,20250904135301757,None,0,4,2,1,-2,0,-1,1,1757008381757702589
0,5.711165429,20250904135301773,None,-2,-4,-2,-3,-4,-2,-2,-1,1757008381772476911
0,5.711365462,20250904135301773,None,-2,-2,-1,-5,-2,-2,-1,0,1757008381772673368
0,5.718436242,20250904135301780,None,1,4,0,6,0,0,0,-1,1757008381779852628
0,5.71856618,20250904135301780,None,1,-3,-3,-4,0,-4,1,0,1757008381780024290
0,5.725900889,20250904135301787,None,-1,-2,-2,-4,-4,1,-3,-1,1757008381787336587
0,5.725996256,20250904135301787,None,1,3,-2,5,3,2,-1,2,1757008381787508726
0,5.740695477,20250904135301802,None,1,2,1,-1,-6,-2,0,5,1757008381802180051
0,5.740803242,20250904135301802,None,-4,0,1,1,3,0,-5,-10,1757008381802247285
0,5.748214961,20250904135301810,None,0,-6,0,-1,-3,-1,-4,-4,1757008381809711933
0,5.7483034140000004,20250904135301810,None,-2,0,-4,-6,-3,-3,0,1,1757008381809809923
0,5.755746603,20250904135301817,None,0,4,4,-3,-1,-1,0,0,1757008381817212820
0,5.755838395,20250904135301817,None,-2,6,1,-1,-3,-2,0,12,1757008381817336320
0,5.77103138,20250904135301832,None,-3,-12,1,8,1,-1,2,-2,1757008381832412719
0,5.771157265,20250904135301833,None,1,-3,-6,2,1,0,-1,-3,1757008381832592010
0,5.778428317,20250904135301840,None,2,-9,-1,-2,0,0,-1,1,1757008381839881896
0,5.778527737,20250904135301840,None,1,19,3,-2,2,1,-3,-2,1757008381840061187
0,5.793596745,20250904135301855,None,0,-7,-3,-3,-5,-3,-2,3,1757008381854960680
0,5.793707133,20250904135301855,None,-6,-7,-1,4,2,4,1,0,1757008381855143785
0,5.8010559090000005,20250904135301862,None,4,3,-1,-2,0,0,1,-1,1757008381862482070
0,5.801159621,20250904135301863,None,0,2,-3,-6,0,-2,-2,1,1757008381862668275
0,5.808427573,20250904135301870,None,2,-4,0,0,-1,0,-3,-2,1757008381869913816
0,5.808490038,20250904135301870,None,2,-2,-3,-3,-5,-2,-2,0,1757008381870089292
0,5.823581696,20250904135301885,None,0,-6,-1,0,0,-2,-1,-2,1757008381884921550
0,5.823705435,20250904135301885,None,-1,1,-1,0,-1,1,-1,2,1757008381885107517
0,5.831011534,20250904135301892,None,1,4,1,2,1,-3,0,5,1757008381892432928
0,5.831123591,20250904135301893,None,-3,-1,1,-1,-2,-2,-4,-11,1757008381892623901
0,5.838429928,20250904135301900,None,-3,-3,-1,3,-1,-1,-2,-3,1757008381899895906
0,5.838521719,20250904135301900,None,-2,-3,-2,-19,-7,-1,1,-1,1757008381900078296
0,5.8535707,20250904135301915,None,-5,-3,-1,4,-1,-2,0,2,1757008381914933443
0,5.853697777,20250904135301915,None,1,0,-2,2,1,-2,-2,-2,1757008381915119409
0,5.860997677,20250904135301922,None,3,-3,-1,1,0,-1,0,0,1757008381922483205
0,5.861068488,20250904135301922,None,1,0,-1,1,-4,0,0,0,1757008381922661066
0,5.868589402,20250904135301930,None,-5,-15,-1,0,-3,-1,0,3,1757008381929927587
0,5.868763924,20250904135301930,None,1,28,5,3,2,0,-3,1,1757008381930110216
0,5.883908749,20250904135301945,None,-2,-6,3,3,1,-1,-1,2,1757008381944974422
0,5.884182215,20250904135301946,None,-2,-21,-6,-6,-4,-2,-1,-2,1757008381945166349
0,5.890791655,20250904135301952,None,-3,24,0,3,2,-2,-1,-3,1757008381952320814
0,5.890912533,20250904135301952,None,4,-3,2,0,-2,-3,-2,-2,1757008381952453613
0,5.898542881,20250904135301960,None,1,-7,0,-1,-1,-2,1,6,1757008381959909915
0,5.898720742,20250904135301960,None,4,-2,-4,-4,-1,0,-4,-7,1757008381960105419
0,5.91381979,20250904135301975,None,-2,0,1,2,0,-2,0,-5,1757008381975137948
0,5.9140164859999995,20250904135301975,None,-3,3,1,0,-3,1,0,2,1757008381975379228
0,5.921226979,20250904135301983,None,-2,-4,-1,-7,-1,-2,-4,-4,1757008381982621669
0,5.92143488,20250904135301983,None,-1,1,-2,-3,1,0,0,1,1757008381982812404
0,5.928677083,20250904135301990,None,-2,-2,-1,2,3,3,0,2,1757008381990076780
0,5.92885685,20250904135301990,None,2,1,-1,-1,-1,2,0,-1,1757008381990284442
0,5.943722249,20250904135302005,None,1,4,-3,2,0,0,1,1,1757008382005038738
0,5.943969965,20250904135302005,None,-2,-3,0,-4,0,1,-1,0,1757008382005223989
0,5.9511349209999995,20250904135302013,None,-1,1,2,0,-1,-1,-1,0,1757008382012556552
0,5.9513061050000005,20250904135302013,None,-1,1,-4,1,4,-3,-1,0,1757008382012734651
0,5.958587885,20250904135302020,None,-2,-6,-4,-14,-2,3,1,-5,1757008382019997596
0,5.958775759,20250904135302020,None,-2,-3,-1,-2,-4,-5,1,-1,1757008382020176172
0,5.973645449,20250904135302035,None,1,-6,-3,1,0,0,-5,0,1757008382035043001
0,5.973826647,20250904135302035,None,-3,16,3,1,0,1,0,-4,1757008382035259246
0,5.98123765,20250904135302043,None,0,1,0,0,1,-1,-3,1,1757008382042584419
0,5.981790305,20250904135302043,None,2,-7,-3,-2,-3,-1,0,-4,1757008382042769908
0,5.988609314,20250904135302050,None,2,3,-2,-1,0,1,4,6,1757008382050024509
0,5.988812924,20250904135302050,None,-3,-5,-8,3,0,-3,-5,-10,1757008382050201416
0,6.003939152,20250904135302065,None,-2,1,4,-1,1,0,-4,7,1757008382065010070
0,6.004152775,20250904135302066,None,7,20,-3,-2,0,2,0,2,1757008382065193414
0,6.011266947,20250904135302073,None,-1,-9,-1,2,-1,-2,0,1,1757008382072513103
0,6.011473418,20250904135302073,None,-1,-4,-3,-2,-2,-4,-1,1,1757008382072688817
0,6.018831492,20250904135302080,None,1,-7,-2,-1,-2,0,-1,-1,1757008382080013275
0,6.019009591,20250904135302080,None,0,2,1,2,-1,2,-1,-2,1757008382080196142
0,6.033752203,20250904135302095,None,-1,-3,-4,-2,-1,-1,1,-3,1757008382095045804
0,6.034262181,20250904135302096,None,1,0,-1,-1,-2,0,1,2,1757008382095520257
0,6.041298151,20250904135302103,None,-3,-2,-1,-5,-1,1,-1,-1,1757008382102551698
0,6.041569233,20250904135302103,None,0,-1,-1,1,-2,-4,3,0,1757008382102719783
0,6.048830033,20250904135302110,None,1,1,-1,1,-2,-1,2,2,1757008382110054254
0,6.048997403,20250904135302110,None,-3,-3,-3,-1,2,-2,-5,-8,1757008382110251426
0,6.063547135,20250904135302125,None,-6,5,-2,0,2,1,-1,-1,1757008382124948501
0,6.063705922,20250904135302125,None,1,2,0,5,7,2,-1,-3,1757008382125121116
0,6.070916653,20250904135302132,None,2,-1,1,2,0,0,2,9,1757008382132423162
0,6.071032525,20250904135302132,None,-4,-3,-3,-15,-9,-3,-4,-5,1757008382132561922
0,6.078319312,20250904135302140,None,-2,2,1,5,1,-3,-6,-6,1757008382139856576
0,6.078440667,20250904135302140,None,0,-1,2,0,1,2,-2,-3,1757008382139972925
0,6.093359948,20250904135302155,None,-1,-6,-3,2,1,1,-2,1,1757008382154888391
0,6.093457699,20250904135302155,None,-3,6,4,-3,-3,-1,-1,-2,1757008382155009746
0,6.100605011,20250904135302162,None,0,-2,-4,-3,-1,-1,-1,-2,1757008382162194728
0,6.100695372,20250904135302162,None,-4,-2,2,1,0,-3,2,-1,1757008382162310123
0,6.108186722,20250904135302170,None,-2,-5,-10,1,1,0,-2,2,1757008382169807910
0,6.108264208,20250904135302170,None,-7,0,5,-4,-1,0,-2,-8,1757008382169910430
0,6.12339139,20250904135302185,None,2,13,1,3,-1,0,1,-2,1757008382184884071
0,6.123503685,20250904135302185,None,-2,-9,-1,-1,1,2,-3,-1,1757008382185006856
0,6.131655217,20250904135302193,None,-4,-4,-1,-3,-1,-5,1,-1,1757008382192613363
0,6.132023097,20250904135302193,None,3,-2,-1,-1,-2,2,1,1,1757008382192812204
0,6.138799668,20250904135302200,None,3,-1,-1,0,-2,4,0,-1,1757008382200028181
0,6.138999463,20250904135302200,None,-3,-1,-1,-3,-4,0,-5,-4,1757008382200199842
0,6.153845787,20250904135302215,None,0,-1,-2,-3,2,0,1,5,1757008382215083599
0,6.154060603,20250904135302215,None,1,2,1,4,2,-1,-4,-10,1757008382215283632
0,6.161202431,20250904135302223,None,0,0,1,1,1,1,-1,-2,1757008382222572088
0,6.161426306,20250904135302223,None,-2,-2,2,-1,-2,1,-1,-5,1757008382222970962
0,6.168643475,20250904135302230,None,-1,-3,-2,3,1,-2,-1,0,1757008382229920625
0,6.168840409,20250904135302230,None,-2,-1,1,-3,-3,-4,-2,1,1757008382229995965
0,6.183769942,20250904135302245,None,-2,-2,-6,-4,-3,1,-1,-2,1757008382244838714
0,6.184036732,20250904135302245,None,-1,-1,0,0,1,0,0,2,1757008382244942903
0,6.191058398,20250904135302252,None,-2,-4,-3,1,-3,-6,-2,0,1757008382252325057
0,6.191253901,20250904135302253,None,0,6,2,0,1,1,-3,0,1757008382252423524
0,6.198765517,20250904135302260,None,2,3,-3,-2,1,2,-1,0,1757008382259825229
0,6.199103117,20250904135302261,None,-2,-6,-3,2,1,1,-1,0,1757008382259922981
0,6.213766098,20250904135302275,None,0,-3,0,-1,-2,-3,0,1,1757008382274871349
0,6.214001179,20250904135302275,None,3,-5,-6,4,3,-2,-3,-3,1757008382274965047
0,6.221090794,20250904135302283,None,-2,-1,0,1,-4,-1,-2,-1,1757008382282363891
0,6.221304894,20250904135302283,None,-1,14,5,-1,-1,-2,-2,-2,1757008382282463788
0,6.228794575,20250904135302290,None,-2,-10,-2,-1,-2,-4,-2,-5,1757008382290037393
0,6.2289907939999996,20250904135302290,None,0,-5,-3,3,-4,-3,-1,-2,1757008382290216922
0,6.243954659,20250904135302305,None,2,6,0,-2,0,2,0,6,1757008382305051565
0,6.24413991,20250904135302306,None,-5,-1,3,-3,2,1,-3,-9,1757008382305275201
0,6.251479865,20250904135302313,None,-1,-1,-2,2,-1,-1,-3,-4,1757008382312575578
0,6.251864195,20250904135302313,None,-1,-1,0,-7,1,-2,1,1,1757008382312760353
0,6.258649826,20250904135302320,None,3,-3,-2,1,3,1,1,2,1757008382320041894
0,6.258752585,20250904135302320,None,-3,-2,-3,8,-1,1,-2,2,1757008382320221662
0,6.273820162,20250904135302335,None,-2,-5,-3,-15,-7,-4,-1,0,1757008382335079193
0,6.274034501,20250904135302335,None,-1,-4,-1,3,2,1,1,3,1757008382335290670
0,6.281388045,20250904135302343,None,0,0,-2,-5,-1,0,2,1,1757008382342603206
0,6.281580925,20250904135302343,None,0,1,3,2,0,3,-4,-3,1757008382342777013
0,6.288900614,20250904135302350,None,-3,-17,-3,-4,-5,-1,-3,-3,1757008382350091695
0,6.289077998,20250904135302350,None,3,17,3,3,2,1,0,1,1757008382350286006
0,6.303913594,20250904135302365,None,-1,-5,-4,-2,1,0,0,2,1757008382365059614
0,6.304095746,20250904135302366,None,0,1,0,-1,-4,-2,1,-1,1757008382365282297
0,6.311303378,20250904135302373,None,-3,0,-4,0,5,0,1,-2,1757008382372550725
0,6.311675787,20250904135302373,None,2,0,-1,-4,3,2,-1,0,1757008382372725486
0,6.318653584,20250904135302380,None,0,-2,-4,0,-2,-2,-1,5,1757008382379986763
0,6.318781615,20250904135302380,None,2,1,3,-3,0,1,-1,-6,1757008382380162000
0,6.333645821,20250904135302395,None,-4,-8,-5,-4,-5,-1,-2,-1,1757008382395049333
0,6.333744765,20250904135302395,None,0,15,4,0,4,3,3,4,1757008382395249843
0,6.341167927,20250904135302403,None,2,6,1,0,-6,-4,-8,-7,1757008382402605772
0,6.341259003,20250904135302403,None,-3,-10,-5,-2,0,-1,-3,0,1757008382402791500
0,6.348670245,20250904135302410,None,0,-1,1,2,4,-3,-1,3,1757008382410110950
0,6.348768235,20250904135302410,None,-1,-3,-3,5,1,1,-1,-2,1757008382410295248
0,6.3637774,20250904135302425,None,1,2,4,-4,0,-1,1,2,1757008382425083160
0,6.363921166,20250904135302425,None,3,4,2,-6,-4,0,-2,1,1757008382425290346
0,6.371221781,20250904135302433,None,-1,-3,-3,0,-1,3,0,-1,1757008382432579517
0,6.371397019,20250904135302433,None,-1,-2,-2,5,-2,0,-2,-1,1757008382432757854
0,6.378558875,20250904135302440,None,2,-7,1,-1,-4,-6,0,1,1757008382440009355
0,6.378648043,20250904135302440,None,0,13,-2,-6,5,0,1,-2,1757008382440193653
0,6.393721343,20250904135302455,None,-1,-9,1,3,3,2,0,-5,1757008382455058336
0,6.393861771,20250904135302455,None,3,-3,-3,-4,-1,2,1,-2,1757008382455258131
0,6.401166678,20250904135302463,None,1,-4,0,-6,-5,0,1,1,1757008382462602138
0,6.401257277,20250904135302463,None,0,-1,0,1,0,-2,-1,-1,1757008382462779998
0,6.40848589,20250904135302470,None,-1,-3,1,1,0,-3,0,-3,1757008382469999313
0,6.408541441,20250904135302470,None,-3,-17,-5,0,-6,0,2,2,1757008382470156908
0,6.423509121,20250904135302485,None,0,23,3,0,6,-2,-3,-17,1757008382484947443
0,6.423655749,20250904135302485,None,-1,-2,1,2,1,1,-4,-6,1757008382485109090
0,6.431239367,20250904135302493,None,-1,-1,-4,0,0,2,0,-2,1757008382492430686
0,6.4314813619999995,20250904135302493,None,-2,-3,-5,0,4,0,-2,1,1757008382492585420
0,6.438428879,20250904135302500,None,-4,-4,-1,0,-2,-1,-3,2,1757008382499890327
0,6.438544274,20250904135302500,None,2,3,1,-5,-5,1,-2,1,1757008382500047206
0,6.453565836,20250904135302515,None,0,-2,-3,10,5,-3,1,0,1757008382514921426
0,6.453732491,20250904135302515,None,-2,3,2,2,-1,-3,3,1,1757008382515086650
0,6.461036921,20250904135302522,None,2,2,1,-2,-1,1,1,3,1757008382522499322
0,6.461150885,20250904135302523,None,-2,-1,-1,-1,-2,0,-2,-3,1757008382522629261
0,6.468737364,20250904135302530,None,3,-2,-1,0,-1,1,1,3,1757008382530017852
0,6.468870163,20250904135302530,None,-2,-1,-3,-1,-4,0,-1,-3,1757008382530168294
0,6.483785391,20250904135302545,None,-2,1,-3,-4,-2,0,2,-2,1757008382545079231
0,6.483979464,20250904135302545,None,-2,-15,0,2,-3,0,-1,1,1757008382545282125
0,6.49148202,20250904135302553,None,5,20,3,0,2,-2,0,-2,1757008382552670717
0,6.491665364,20250904135302553,None,-2,-16,-4,-2,0,0,-1,2,1757008382552845001
0,6.498911143,20250904135302560,None,-4,15,-1,-3,-1,-3,-1,-2,1757008382560045242
0,6.499093295,20250904135302561,None,0,0,-3,1,-2,-1,1,2,1757008382560259819
0,6.513547421,20250904135302575,None,1,-6,0,2,2,2,1,3,1757008382574933528
0,6.51372552,20250904135302575,None,0,-5,-2,-5,-3,-3,0,1,1757008382575088500
0,6.520968199,20250904135302582,None,-5,-3,-3,-2,-5,-2,-4,-19,1757008382582393169
0,6.521168709,20250904135302583,None,-2,-4,-1,-2,-4,-2,1,-1,1757008382582553863
0,6.528489352,20250904135302590,None,0,2,-2,-2,2,1,-1,3,1757008382589910745
0,6.528862477,20250904135302590,None,-1,0,-2,5,-4,-4,-1,2,1757008382590024471
0,6.543671608,20250904135302605,None,-4,2,-3,5,0,-2,-3,-1,1757008382605050563
0,6.543863535,20250904135302605,None,0,-5,-2,6,5,-1,-1,0,1757008382605193614
0,6.551549435,20250904135302613,None,-1,-3,1,-11,-7,-3,-2,-3,1757008382612691879
0,6.551743031,20250904135302613,None,0,5,1,-4,0,-2,0,1,1757008382612894773
0,6.558818102,20250904135302620,None,0,-1,-3,1,2,0,-1,-2,1757008382620074510
0,6.558997155,20250904135302620,None,-4,-4,0,3,-2,2,-1,0,1757008382620320558
0,6.57369423,20250904135302635,None,-2,2,3,2,3,0,1,-1,1757008382634975433
0,6.5739371779999995,20250904135302635,None,-1,-2,-2,-3,0,-1,-1,-1,1757008382635165929
0,6.581689835,20250904135302643,None,1,0,2,-2,-4,1,0,-1,1757008382642733573
0,6.58203125,20250904135302643,None,4,8,-5,0,3,3,0,2,1757008382642934083
0,6.588607073,20250904135302650,None,-3,-12,-3,1,-2,1,0,-2,1757008382649950265
0,6.5887599,20250904135302650,None,-4,-21,-1,-3,2,1,-1,-1,1757008382650128126
0,6.603801012,20250904135302665,None,1,32,3,0,-2,-2,0,7,1757008382665102958
0,6.603981257,20250904135302665,None,3,-3,1,0,1,-3,1,-7,1757008382665318965
0,6.611126185,20250904135302673,None,-4,-7,-9,-4,-1,-2,-5,-11,1757008382672455787
0,6.61130476,20250904135302673,None,-2,-1,3,1,-4,1,-2,-1,1757008382672636747
0,6.618664742,20250904135302680,None,-4,-1,-5,0,0,0,2,3,1757008382679932832
0,6.618860722,20250904135302680,None,1,0,-1,0,0,-1,-1,-2,1757008382680142402
0,6.633883715,20250904135302695,None,-1,1,-1,-7,-1,-3,1,-2,1757008382694987297
0,6.634175301,20250904135302696,None,3,-1,-2,-2,1,-1,0,0,1757008382695188283
0,6.641059161,20250904135302702,None,-1,-2,0,2,2,0,4,-3,1757008382702490329
0,6.64124918,20250904135302703,None,1,-1,-2,-3,-3,0,-6,-2,1757008382702674388
0,6.648735762,20250904135302710,None,0,-2,2,3,1,-1,-1,-4,1757008382709958553
0,6.649031163,20250904135302710,None,0,-3,-1,-1,-1,-2,2,8,1757008382710123777
0,6.663072587,20250904135302724,None,1,0,1,4,0,-1,-3,-6,1757008382724740028
0,6.663183451,20250904135302725,None,-3,-4,-1,-1,-1,0,-3,-4,1757008382724914550
0,6.670770407,20250904135302732,None,1,0,-1,5,2,-1,-2,0,1757008382732357025
0,6.670945883,20250904135302732,None,2,1,3,1,-1,-2,2,-1,1757008382732479333
0,6.678098202,20250904135302740,None,-3,-3,-4,-2,2,-1,-1,2,1757008382739821195
0,6.678181887,20250904135302740,None,1,-9,-4,0,2,1,0,-2,1757008382739938974
0,6.6932997709999995,20250904135302755,None,-1,18,3,-4,-7,-2,-4,0,1757008382754893779
0,6.693462849,20250904135302755,None,0,-1,-2,2,3,3,0,1,1757008382755026340
0,6.700656414,20250904135302762,None,-2,-10,-1,-1,3,0,-3,-3,1757008382762382507
0,6.70075059,20250904135302762,None,3,14,1,-6,-5,-4,3,6,1757008382762489795
0,6.708134175,20250904135302770,None,0,-11,-6,4,3,3,-3,-1,1757008382769870042
0,6.708205224,20250904135302770,None,-1,0,5,-3,-2,0,-2,1,1757008382769985437
0,6.723458052,20250904135302785,None,0,-3,-5,0,1,2,-1,0,1757008382784849405
0,6.723660708,20250904135302785,None,-3,-3,-1,1,-1,0,2,-3,1757008382784963130
0,6.731140852,20250904135302793,None,-1,0,-3,-5,0,-4,3,0,1757008382792365074
0,6.731383801,20250904135302793,None,-2,-3,-1,-2,1,-1,-2,0,1757008382792485475
0,6.745987416,20250904135302807,None,0,-2,-3,2,0,0,1,0,1757008382807309627
0,6.746171952,20250904135302808,None,1,-5,0,1,1,1,2,2,1757008382807457447
0,6.753426314,20250904135302815,None,3,1,0,-7,-4,-1,-4,-4,1757008382814837455
0,6.753615141,20250904135302815,None,-1,-2,0,-4,-5,-2,2,-2,1757008382814951181
0,6.760883332,20250904135302822,None,2,-1,-1,1,-2,-3,0,-2,1757008382822355031
0,6.7610609539999995,20250904135302822,None,-2,0,-1,0,-1,0,-1,-1,1757008382822463750
0,6.776059628,20250904135302837,None,-4,2,-1,0,1,1,1,2,1757008382837336540
0,6.776236296,20250904135302838,None,2,-4,-3,0,1,-1,-3,-3,1757008382837450981
0,6.783624411,20250904135302845,None,-3,-8,1,0,2,-1,1,1,1757008382844902515
0,6.783823491,20250904135302845,None,0,-3,-1,-5,-2,-1,1,1,1757008382845005273
0,6.791063071,20250904135302852,None,-2,-2,-1,-1,-2,-1,1,-4,1757008382852401971
0,6.791232586,20250904135302853,None,0,-4,1,3,4,2,0,-1,1757008382852496862
0,6.805986166,20250904135302867,None,-4,-14,-6,-5,0,-3,1,-1,1757008382867304086
0,6.806165457,20250904135302868,None,0,18,6,-6,-4,-3,0,-1,1757008382867465734
0,6.813471795,20250904135302875,None,1,8,-2,-3,-3,0,-3,-1,1757008382874755144
0,6.813637495,20250904135302875,None,-5,-15,-8,1,2,-1,0,2,1757008382874845266
0,6.821000338,20250904135302882,None,-1,-2,1,3,0,0,-2,1,1757008382882312536
0,6.821168662,20250904135302883,None,-5,-4,-4,3,-2,0,0,7,1757008382882414340
0,6.836079836,20250904135302898,None,4,1,-2,0,-1,0,3,-1,1757008382897344827
0,6.83625722,20250904135302898,None,-3,-5,-1,-2,-1,-1,-1,2,1757008382897462129
0,6.843466998,20250904135302905,None,-3,6,-2,1,-2,-2,-5,-9,1757008382904798746
0,6.843791008,20250904135302905,None,1,4,1,0,0,0,-4,-3,1757008382904894828
0,6.851028204,20250904135302912,None,-2,-2,1,2,1,1,-1,-2,1757008382912302017
0,6.851207734,20250904135302913,None,-2,0,-4,-6,-3,1,-1,1,1757008382912401199
0,6.866063834,20250904135302927,None,-2,2,-2,-2,-1,2,-1,0,1757008382927324056
0,6.866244317,20250904135302928,None,-2,0,1,6,2,0,0,-4,1757008382927448511
0,6.87342763,20250904135302935,None,3,0,-2,0,2,-3,-2,1,1757008382934754133
0,6.873593569,20250904135302935,None,1,-1,2,0,-1,-2,0,-1,1757008382934908628
0,6.881178618,20250904135302943,None,-1,1,0,-1,-4,1,1,-2,1757008382942435264
0,6.881386519,20250904135302943,None,-1,0,-2,3,2,0,-2,-1,1757008382942539930
0,6.896242142,20250904135302958,None,2,-2,-3,3,1,-1,-1,2,1757008382957464218
0,6.896654606,20250904135302958,None,-3,-4,-1,-1,1,-5,-2,-2,1757008382957584857
0,6.9038102630000004,20250904135302965,None,-2,-1,-1,-1,-3,-2,-1,-1,1757008382964971065
0,6.9040062429999995,20250904135302965,None,0,2,-5,-3,-2,4,2,0,1757008382965102434
0,6.911081791,20250904135302973,None,-3,-2,-3,-1,-4,-6,0,-4,1757008382972410440
0,6.9112489230000005,20250904135302973,None,1,3,4,-1,0,2,1,1,1757008382972501993
0,6.926175118,20250904135302988,None,1,8,-4,-2,-4,-1,-3,0,1757008382987420558
0,6.926388979,20250904135302988,None,2,2,-2,0,0,3,1,2,1757008382987534046
0,6.933622838,20250904135302995,None,0,0,-3,1,-1,-1,-2,-2,1757008382994866371
0,6.933798314,20250904135302995,None,-3,-10,-1,-4,-1,-1,-1,-1,1757008382994973421
0,6.941156626,20250904135303003,None,0,0,1,-2,-2,-1,1,-7,1757008383002462148
0,6.941372395,20250904135303003,None,0,3,0,0,-2,0,-2,-1,1757008383002568006
0,6.956106902,20250904135303018,None,1,3,-1,0,-3,-2,-1,-2,1757008383017405271
0,6.956309557,20250904135303018,None,-1,2,-3,-3,-1,-4,1,3,1757008383017511129
0,6.963675023,20250904135303025,None,0,-2,-3,2,1,0,3,-1,1757008383024938344
0,6.963871718,20250904135303025,None,-5,3,2,0,-2,-3,-5,-8,1757008383025059223
0,6.971092701,20250904135303033,None,-1,-4,-1,-2,-2,-1,0,-1,1757008383032408714
0,6.971256495,20250904135303033,None,-2,-2,-1,1,-2,-1,-2,-5,1757008383032508611
0,6.986125946,20250904135303048,None,0,2,-4,-3,-3,0,-1,-1,1757008383047416925
0,6.9863059530000005,20250904135303048,None,-2,0,2,-4,0,-3,-1,-2,1757008383047530412
0,6.993619919,20250904135303055,None,-3,-1,1,1,2,0,-1,-1,1757008383054871082
0,6.993799687,20250904135303055,None,0,-3,-3,3,1,-1,-1,0,1757008383054965257
0,7.001074315,20250904135303063,None,-2,-3,-1,-2,0,-3,-5,-2,1757008383062392234
0,7.001257658,20250904135303063,None,1,0,0,-2,0,-3,-3,-1,1757008383062485933
0,7.016107083,20250904135303078,None,-3,-2,2,2,-1,1,-4,-4,1757008383077401638
0,7.016273976,20250904135303078,None,0,0,0,-2,4,3,1,1,1757008383077503442
0,7.023679257,20250904135303085,None,-2,-12,-8,-9,-3,-3,-5,-2,1757008383084919214
0,7.023876191,20250904135303085,None,-1,19,8,4,-3,-1,-2,-3,1757008383085026025
0,7.031077147,20250904135303093,None,0,-1,-5,1,-1,1,-1,4,1757008383092408418
0,7.031236172,20250904135303093,None,3,0,0,-2,0,-1,-2,-6,1757008383092515468
0,7.046154023,20250904135303108,None,-3,-2,-1,-1,-2,0,0,3,1757008383107420682
0,7.046369791,20250904135303108,None,0,-6,-1,-1,-1,0,0,8,1757008383107543706
0,7.053612233,20250904135303115,None,-2,-5,1,0,2,0,1,-1,1757008383114885091
0,7.053785325,20250904135303115,None,-3,-2,-1,0,-1,-1,2,0,1757008383114991188
0,7.0689075,20250904135303130,None,1,-2,-3,0,-3,-2,2,1,1757008383130184412
0,7.069461585,20250904135303131,None,-3,1,-1,-1,-8,-7,1,-3,1757008383130633831
0,7.076401949,20250904135303138,None,2,3,0,-4,-1,-1,-2,-1,1757008383137603044
0,7.076610089,20250904135303138,None,1,1,1,1,0,1,1,-5,1757008383137777090
0,7.083681584,20250904135303145,None,0,-2,-1,1,2,0,0,3,1757008383145124673
0,7.083799839,20250904135303145,None,-2,-2,-6,-2,3,0,-1,0,1757008383145256996
0,7.09094286,20250904135303152,None,0,3,3,-1,-3,1,-2,-2,1757008383152442455
0,7.09104085,20250904135303152,None,-2,0,-1,3,2,-3,-1,5,1757008383152568340
0,7.106136322,20250904135303168,None,-2,-1,0,0,-2,-2,-3,-4,1757008383167431354
0,7.106301785,20250904135303168,None,-4,0,2,-7,-1,-1,1,0,1757008383167565107
0,7.113782168,20250904135303175,None,-1,-1,-6,6,0,0,2,1,1757008383175083637
0,7.113937855,20250904135303175,None,2,-1,1,2,3,0,2,2,1757008383175276994
0,7.128901005,20250904135303190,None,0,-1,-3,-2,-6,0,-1,-1,1757008383190096616
0,7.129079104,20250904135303190,None,0,-1,-1,-3,-4,-3,-8,-11,1757008383190285205
0,7.136382103,20250904135303198,None,-5,-17,-3,-1,0,0,1,0,1757008383197595596
0,7.136567355,20250904135303198,None,0,26,5,0,-1,-3,-1,1,1757008383197771310
0,7.143912793,20250904135303205,None,0,-2,1,1,2,-1,-2,1,1757008383205269098
0,7.144203425,20250904135303206,None,-1,-14,-4,-6,0,-3,1,1,1757008383205670356
0,7.151381255,20250904135303213,None,0,17,1,0,-1,-2,0,0,1757008383212598562
0,7.151571036,20250904135303213,None,0,-4,-5,-5,1,1,1,-1,1757008383212772369
0,7.165890217,20250904135303227,None,1,-5,4,2,-1,-1,0,2,1757008383227316141
0,7.166006566,20250904135303227,None,0,0,-3,-4,-3,-3,-3,-10,1757008383227439403
0,7.173303843,20250904135303235,None,-3,2,-1,-3,-2,-1,2,-5,1757008383234802484
0,7.173535109,20250904135303235,None,-2,-1,0,-2,-2,1,0,-2,1757008383234939336
0,7.188490391,20250904135303250,None,0,-4,-3,-1,-1,-3,-2,-6,1757008383249910593
0,7.188623429,20250904135303250,None,0,0,1,0,-3,1,-3,1,1757008383250063657
0,7.196002484,20250904135303257,None,4,5,4,4,-1,0,1,0,1757008383257489442
0,7.196120978,20250904135303258,None,-1,-4,-1,-2,-4,-1,0,-1,1757008383257616043
0,7.203512907,20250904135303265,None,-4,-1,2,-3,1,1,-3,2,1757008383264946460
0,7.203619719,20250904135303265,None,-1,-1,1,0,5,1,-2,-3,1757008383265081644
0,7.210869551,20250904135303272,None,-1,-3,-4,1,-6,-2,0,-4,1757008383272417783
0,7.210959197,20250904135303272,None,-2,0,-1,-7,0,1,-2,-3,1757008383272527933
0,7.225989581,20250904135303287,None,1,-2,-3,-1,-1,-4,-1,4,1757008383287457466
0,7.226095677,20250904135303288,None,-4,-17,-4,-2,-1,-1,-2,0,1757008383287587881
0,7.233407736,20250904135303295,None,2,25,5,-1,2,0,3,0,1757008383294896364
0,7.23352933,20250904135303295,None,2,-7,-6,-2,2,2,-3,-1,1757008383295015096
0,7.248431921,20250904135303310,None,-5,-6,-4,-8,-2,-2,0,0,1757008383309934139
0,7.248538018,20250904135303310,None,-2,-4,0,-3,-2,1,1,-2,1757008383310056686
0,7.255924225,20250904135303317,None,3,0,0,0,2,-1,-2,-1,1757008383317428112
0,7.256096125,20250904135303318,None,3,-1,0,0,0,0,1,7,1757008383317550897
0,7.263700963,20250904135303325,None,0,0,-3,-4,-2,-2,0,-6,1757008383325047969
0,7.263802052,20250904135303325,None,0,-2,-2,2,0,1,-1,-5,1757008383325170516
0,7.270905734,20250904135303332,None,-4,-12,-1,1,1,-1,-1,-3,1757008383332434177
0,7.27101779,20250904135303332,None,0,18,-1,-3,-2,0,-1,4,1757008383332556009
0,7.286044121,20250904135303347,None,3,-8,-1,-6,-2,-4,0,2,1757008383347454071
0,7.286194087,20250904135303348,None,-1,1,1,3,3,-1,-2,1,1757008383347612380
0,7.293345213,20250904135303355,None,-2,-3,-5,-1,-4,-5,1,-5,1757008383354872941
0,7.2934348589999995,20250904135303355,None,0,-3,-1,-1,6,-2,0,-2,1757008383354989767
0,7.308543206,20250904135303370,None,1,1,0,0,0,-3,0,1,1757008383369970798
0,7.308653832,20250904135303370,None,0,-3,-3,-1,-2,-1,1,-3,1757008383370117425
0,7.315964461,20250904135303377,None,0,-1,1,-3,-2,-1,-1,-2,1757008383377464056
0,7.316077471,20250904135303377,None,1,3,3,-3,-1,2,3,-1,1757008383377593517
0,7.323398114,20250904135303385,None,-3,-4,-2,-2,-4,-3,-2,-2,1757008383384929180
0,7.323490859,20250904135303385,None,0,-3,-1,3,2,-1,0,1,1757008383385044336
0,7.331213713,20250904135303393,None,-3,-6,-7,2,-1,0,-2,3,1757008383392435550
0,7.331414938,20250904135303393,None,0,0,0,-10,-3,0,0,0,1757008383392731189
0,7.345989705,20250904135303407,None,2,16,5,3,-3,0,0,-1,1757008383407466411
0,7.346110583,20250904135303408,None,-1,-11,-1,0,-4,1,-2,4,1757008383407603025
0,7.353496314,20250904135303415,None,0,-2,-3,2,2,0,-1,-2,1757008383414938926
0,7.353622914,20250904135303415,None,0,-1,1,-3,-4,-3,-3,0,1757008383415080547
0,7.368601561,20250904135303430,None,-2,0,-2,2,0,2,-2,-1,1757008383429981231
0,7.368748427,20250904135303430,None,4,1,-5,-1,-2,0,-3,2,1757008383430123805
0,7.3761651520000004,20250904135303438,None,2,0,1,-3,-3,-1,1,-3,1757008383437485456
0,7.376371384,20250904135303438,None,-1,-4,-1,-3,1,-2,1,-1,1757008383437605381
0,7.383704901,20250904135303445,None,-4,-9,-4,1,-1,-2,-3,-6,1757008383445093870
0,7.383838892,20250904135303445,None,-1,18,1,-2,-1,-2,-1,7,1757008383445259809
0,7.390926362,20250904135303452,None,1,-6,-1,0,-1,2,3,-2,1757008383452450752
0,7.391026974,20250904135303452,None,1,-6,2,0,-2,1,-2,0,1757008383452582597
0,7.405851603,20250904135303467,None,1,7,-4,0,1,-1,3,3,1757008383467381954
0,7.405951262,20250904135303467,None,1,1,-1,0,-1,-2,-1,-2,1757008383467498540
0,7.413318158,20250904135303475,None,-5,-4,-4,3,4,-3,-5,-10,1757008383474868535
0,7.413463116,20250904135303475,None,-3,-3,-3,-3,-5,-2,0,2,1757008383474984407
0,7.428985835,20250904135303490,None,0,1,0,0,-3,-3,0,3,1757008383490168094
0,7.429190875,20250904135303491,None,1,-3,-3,0,-1,0,-4,2,1757008383490384578
0,7.436133624,20250904135303498,None,-1,-1,0,-5,-2,0,1,0,1757008383497534036
0,7.436257124,20250904135303498,None,-1,-5,-1,0,-1,-2,-1,1,1757008383497694730
0,7.443525792,20250904135303505,None,-2,-18,-2,7,2,-1,-2,-7,1757008383505102634
0,7.443618775,20250904135303505,None,-1,26,5,-5,-4,-3,-1,-4,1757008383505312442
0,7.451057196,20250904135303512,None,-2,-7,-2,1,-1,-1,-3,-1,1757008383512632846
0,7.4511747360000005,20250904135303513,None,0,-10,-6,-7,-8,1,-1,3,1757008383512824773
0,7.466882706,20250904135303528,None,2,-1,-3,-1,-2,3,2,2,1757008383528022527
0,7.467082978,20250904135303528,None,-2,-1,-4,-3,-2,-3,2,-2,1757008383528212308
0,7.47396946,20250904135303535,None,-2,5,3,1,0,-3,-3,-4,1757008383535274028
0,7.4741499430000005,20250904135303536,None,-2,-2,-2,-1,1,0,1,-4,1757008383535510063
0,7.488764763,20250904135303550,None,-1,2,-1,-1,0,-1,0,-1,1757008383550088405
0,7.488959074,20250904135303550,None,2,-4,-5,1,1,-2,-4,0,1757008383550279140
0,7.496367693,20250904135303558,None,2,0,-1,-1,-1,-2,-2,10,1757008383557624340
0,7.49654913,20250904135303558,None,0,-3,0,3,1,-3,2,0,1757008383557800531
0,7.504075766,20250904135303566,None,0,-6,-7,-2,0,0,-1,-3,1757008383565196037
0,7.504262925,20250904135303566,None,-2,9,5,-1,3,-1,-1,-1,1757008383565429925
0,7.51159072,20250904135303573,None,-2,2,-3,-1,0,0,-1,-1,1757008383572797536
0,7.511765242,20250904135303573,None,-4,-7,1,-1,1,-1,1,0,1757008383572997808
0,7.526687384,20250904135303588,None,-2,-1,-1,-1,2,-1,2,-1,1757008383587751388
0,7.526930333,20250904135303588,None,-5,-3,-3,-4,-3,0,-1,-1,1757008383587976694
0,7.53384471,20250904135303595,None,0,-1,0,-2,-1,-3,-3,2,1757008383595106124
0,7.534022332,20250904135303595,None,0,-12,-2,0,1,2,1,2,1757008383595289707
0,7.549165726,20250904135303611,None,0,29,7,2,-1,0,-2,2,1757008383610404968
0,7.549455643,20250904135303611,None,2,-11,-6,2,0,-2,-3,0,1757008383610640287
0,7.556605101,20250904135303618,None,1,-8,-2,-1,-1,-1,-3,-1,1757008383617758274
0,7.556784153,20250904135303618,None,-1,0,0,-8,1,-1,1,0,1757008383617985248
0,7.564273119,20250904135303626,None,0,-1,-2,6,-1,-1,1,0,1757008383625195980
0,7.56451583,20250904135303626,None,-4,1,0,4,1,-1,-3,-1,1757008383625422954
0,7.571632624,20250904135303633,None,-2,-1,-2,2,-1,-1,-4,-1,1757008383632781982
0,7.571824074,20250904135303633,None,-1,-2,0,1,-1,0,-1,-1,1757008383632986545
0,7.586943388,20250904135303648,None,1,-1,4,-12,-4,-2,1,0,1757008383647945880
0,7.587172747,20250904135303649,None,1,-1,1,3,1,0,1,0,1757008383648209571
0,7.594159127,20250904135303656,None,1,-2,-2,-1,1,-2,3,4,1757008383655351638
0,7.594378472,20250904135303656,None,-2,-3,0,1,1,-3,-1,-3,1757008383655561685
0,7.608873368,20250904135303670,None,-2,-1,2,-5,-2,-1,-2,-6,1757008383670185327
0,7.609055996,20250904135303670,None,4,2,0,-2,1,-3,0,10,1757008383670442581
0,7.616513014,20250904135303678,None,1,-2,-1,0,3,1,2,-3,1757008383677681922
0,7.616673947,20250904135303678,None,-4,-2,0,0,1,-2,1,1,1757008383677873134
0,7.624082089,20250904135303686,None,-3,4,-4,-4,-3,-2,0,-2,1757008383685204505
0,7.624305487,20250904135303686,None,0,-1,2,-1,1,2,0,1,1757008383685461044
0,7.631782294,20250904135303693,None,0,6,-3,1,2,1,2,2,1757008383692773103
0,7.631963969,20250904135303693,None,0,-5,0,-1,-4,-3,-1,1,1757008383693113803
0,7.646489382,20250904135303708,None,0,-4,1,-2,0,0,0,2,1757008383707748651
0,7.646701336,20250904135303708,None,-3,1,0,-1,0,1,-1,-6,1757008383707976341
0,7.654213191,20250904135303716,None,3,1,-4,-4,1,2,-1,-1,1757008383715355157
0,7.654532195,20250904135303716,None,-1,-2,2,1,-4,-3,0,-7,1757008383715570449
0,7.668621302,20250904135303730,None,-1,-3,-1,0,1,-2,0,1,1757008383729975700
0,7.668795824,20250904135303730,None,-3,-5,-7,-3,-2,-5,0,2,1757008383730140924
0,7.676224947,20250904135303738,None,2,2,5,2,3,-1,-2,-2,1757008383737500429
0,7.676450015,20250904135303738,None,2,12,2,1,0,4,1,-2,1757008383737689971
0,7.683560372,20250904135303745,None,-3,-11,-1,-4,-2,3,-1,0,1757008383744888782
0,7.683718682,20250904135303745,None,2,-4,-6,-1,-4,0,0,-4,1757008383745076894
0,7.69888258,20250904135303760,None,2,0,5,4,0,1,1,0,1757008383759978771
0,7.699105025,20250904135303761,None,-3,-1,-1,-5,4,-1,-1,-1,1757008383760178327
0,7.706040383,20250904135303767,None,-2,-7,-3,3,0,-2,0,0,1757008383767335414
0,7.706187726,20250904135303768,None,0,-2,2,-5,-1,-1,-1,0,1757008383767489910
0,7.71374178,20250904135303775,None,1,0,-2,-3,-1,-1,-2,-2,1757008383774904727
0,7.714179755,20250904135303776,None,-2,-1,3,3,-1,0,2,5,1757008383775090456
0,7.728764058,20250904135303790,None,-2,-1,0,2,0,3,0,1,1757008383789915800
0,7.728945017,20250904135303790,None,0,-2,-3,-1,-1,1,-4,-2,1757008383790099620
