gt,time_elapsed,current_time,current_task,emg0,emg1,emg2,emg3,emg4,emg5,emg6,emg7,emg_timer_stamp
0,0.028610707,20250904135428337,None,2,2,-1,0,-1,0,3,4,1757008468336717367
0,0.028765917,20250904135428337,None,0,-1,-2,0,-2,-3,-1,-1,1757008468336882352
0,0.043532372,20250904135428352,None,-2,0,1,-1,-1,2,-3,1,1757008468351626634
0,0.043688774,20250904135428352,None,0,1,-5,0,2,-9,-8,4,1757008468351804733
0,0.051033497,20250904135428359,None,5,4,-2,-3,-1,-6,-1,-4,1757008468359118223
0,0.05116868,20250904135428359,None,1,-1,-1,-3,5,11,10,1,1757008468359251260
0,0.058486224,20250904135428366,None,-3,-2,-3,-3,-11,36,-6,-2,1757008468366595983
0,0.058628083,20250904135428367,None,-14,0,-5,-4,0,-5,-9,-5,1757008468366755247
0,0.073477269,20250904135428381,None,6,1,-1,2,-5,-2,-2,-5,1757008468381578922
0,0.073586226,20250904135428382,None,3,0,1,0,-2,2,1,2,1757008468381747722
0,0.080904246,20250904135428389,None,-1,5,-1,-5,0,1,-2,-4,1757008468389015197
0,0.080976725,20250904135428389,None,-5,0,0,5,7,6,5,-2,1757008468389140129
0,0.088178397,20250904135428396,None,-4,-4,0,-16,-26,-1,7,-1,1757008468396423578
0,0.088316918,20250904135428396,None,5,4,4,3,2,0,-3,2,1757008468396520853
0,0.103980065,20250904135428412,None,0,2,0,-1,2,-2,0,3,1757008468411804676
0,0.104230404,20250904135428412,None,4,-2,-1,0,-1,-5,-3,-3,1757008468411983728
0,0.111979962,20250904135428420,None,0,2,-1,-1,2,3,3,-1,1757008468419396400
0,0.112545252,20250904135428421,None,9,-3,-1,3,-1,1,6,11,1757008468419591426
0,0.118897438,20250904135428427,None,-7,-2,-2,-1,0,3,8,-1,1757008468426736831
0,0.119122744,20250904135428427,None,4,1,-1,0,0,-4,-7,3,1757008468426915645
0,0.134232283,20250904135428442,None,-11,-2,0,0,-2,-8,-6,-7,1757008468442062616
0,0.134453059,20250904135428442,None,0,-1,-3,-1,-1,-3,-8,0,1757008468442272424
0,0.141599417,20250904135428450,None,-1,1,0,0,-3,2,3,1,1757008468449377775
0,0.141863823,20250904135428450,None,0,-2,1,-1,2,2,4,-4,1757008468449569940
0,0.156685829,20250904135428465,None,-3,3,0,-1,3,1,1,-1,1757008468464507341
0,0.157154084,20250904135428465,None,-2,0,0,-2,1,-2,-2,0,1757008468464676380
0,0.163852692,20250904135428472,None,-1,-4,-1,-2,3,-3,-1,2,1757008468471724510
0,0.164017201,20250904135428472,None,-10,-2,0,-1,-3,1,1,-2,1757008468471866130
0,0.171445847,20250904135428479,None,7,-2,-2,3,-1,1,0,0,1757008468479316711
0,0.17163539,20250904135428480,None,2,-3,4,2,3,0,-1,-2,1757008468479470491
0,0.179002285,20250904135428487,None,-6,0,-4,-9,-5,-1,1,-2,1757008468486747741
0,0.179193735,20250904135428487,None,-8,-4,-1,0,19,1,-3,-2,1757008468486894607
0,0.194268704,20250904135428502,None,-1,-1,-3,1,-7,1,1,-1,1757008468501887321
0,0.194539547,20250904135428502,None,2,-2,0,-2,-3,6,1,-3,1757008468502071619
0,0.201556206,20250904135428510,None,-4,-4,-1,2,0,-10,3,1,1757008468509365558
0,0.201756239,20250904135428510,None,11,7,3,4,-1,7,7,8,1757008468509533643
0,0.209358931,20250904135428517,None,-1,-3,5,1,2,-7,-10,-6,1757008468517094373
0,0.209591389,20250904135428518,None,-5,-2,-3,-2,4,0,2,-5,1757008468517290353
0,0.224047423,20250904135428532,None,6,2,-4,-4,-3,6,2,3,1757008468531838178
0,0.22423935,20250904135428532,None,-1,-3,-4,-5,-9,36,-2,-1,1757008468532022714
0,0.231670857,20250904135428540,None,1,-4,-4,-1,0,2,6,1,1757008468539404392
0,0.231944084,20250904135428540,None,-7,-1,-1,-1,1,3,-2,-1,1757008468539582490
0,0.239264727,20250904135428547,None,8,0,1,-2,-4,2,0,-3,1757008468546871185
0,0.239506245,20250904135428547,None,-3,0,2,1,1,3,4,2,1757008468547052621
0,0.254129887,20250904135428562,None,-3,-1,-3,-8,0,-1,-1,-2,1757008468561827898
0,0.25436163,20250904135428562,None,6,-3,-3,3,-1,-4,1,-4,1757008468562007188
0,0.261609793,20250904135428570,None,-1,-1,3,-1,-1,8,5,0,1757008468569299459
0,0.261879444,20250904135428570,None,-1,1,-2,-1,-3,-16,-17,-1,1757008468569482088
0,0.269449711,20250904135428577,None,-1,-1,2,-4,1,-9,-3,-1,1757008468577194690
0,0.26964283,20250904135428578,None,5,4,1,0,1,1,3,0,1757008468577402353
0,0.284903527,20250904135428593,None,7,1,-4,2,-1,0,0,-1,1757008468592446804
0,0.285592556,20250904135428594,None,-6,-1,0,-1,-4,-1,2,-2,1757008468592656373
0,0.291546822,20250904135428600,None,0,-1,-2,2,15,8,9,-4,1757008468599341154
0,0.291739703,20250904135428600,None,5,2,1,1,-7,-3,-9,3,1757008468599487781
0,0.306856156,20250904135428615,None,2,-1,-1,1,-4,0,1,2,1757008468614517688
0,0.307467461,20250904135428615,None,-1,0,-1,-1,0,-4,-1,-2,1757008468614714622
0,0.314201832,20250904135428622,None,-2,0,-3,-1,3,0,4,-2,1757008468621799945
0,0.314472914,20250904135428622,None,1,1,4,2,0,7,-8,0,1757008468621930837
0,0.321513176,20250904135428629,None,0,-1,-8,2,0,-2,9,-2,1757008468629221916
0,0.321715594,20250904135428630,None,2,-4,2,-2,0,3,-3,0,1757008468629355669
0,0.329299212,20250904135428637,None,-2,1,-3,-2,-2,-10,-2,-3,1757008468636903524
0,0.329557181,20250904135428638,None,5,2,-1,4,0,-4,-3,0,1757008468637007474
0,0.344101191,20250904135428652,None,-3,-4,-4,-12,-5,-3,6,0,1757008468651840448
0,0.344318629,20250904135428652,None,2,-1,-1,-4,-5,-5,-1,-1,1757008468651982307
0,0.351408243,20250904135428659,None,0,-2,1,-1,-5,3,-3,-6,1757008468659240722
0,0.351614714,20250904135428660,None,-1,-5,-1,2,0,3,3,2,1757008468659365653
0,0.366157532,20250904135428674,None,0,2,0,2,-1,-2,-3,-4,1757008468674186229
0,0.366306544,20250904135428674,None,-3,-3,0,0,-4,-3,-5,-4,1757008468674244880
0,0.374146462,20250904135428682,None,-2,-3,1,1,1,2,4,0,1757008468681869029
0,0.37432003,20250904135428682,None,-1,-2,1,1,1,1,-5,-6,1757008468682034969
0,0.381311178,20250904135428689,None,0,-2,-3,1,0,1,8,2,1757008468689295530
0,0.381498575,20250904135428689,None,3,-3,-3,1,10,5,-4,2,1757008468689429044
0,0.389141083,20250904135428697,None,-4,2,5,3,2,-1,-4,-3,1757008468696915149
0,0.389499903,20250904135428697,None,-1,-2,-9,-11,-5,-4,-3,-5,1757008468697025299
0,0.404185534,20250904135428712,None,-2,-4,-4,-3,-5,-8,-9,1,1757008468711912155
0,0.404469729,20250904135428712,None,5,2,6,3,-3,0,6,2,1757008468712100505
0,0.411457777,20250904135428719,None,1,0,5,6,8,-50,-3,0,1757008468719397783
0,0.411653996,20250904135428720,None,1,-5,-2,-3,4,-4,-1,-3,1757008468719570636
0,0.426455498,20250904135428734,None,0,3,-2,-3,-2,0,-1,5,1757008468734390974
0,0.426641226,20250904135428735,None,-2,4,4,0,-1,-2,-2,1,1757008468734561443
0,0.434071541,20250904135428742,None,-8,3,1,-2,5,6,6,-4,1757008468742097139
0,0.434239388,20250904135428742,None,9,-1,-1,-3,1,3,2,-1,1757008468742368698
0,0.44135499,20250904135428749,None,-4,1,0,0,0,-5,-11,0,1757008468749405145
0,0.441521883,20250904135428749,None,4,-5,-5,-3,0,3,8,5,1757008468749658584
0,0.457492829,20250904135428765,None,1,-3,1,6,-2,-5,-7,-1,1757008468765587806
0,0.457631111,20250904135428766,None,-8,-4,-4,-19,-7,-3,-3,-8,1757008468765761852
0,0.463520766,20250904135428771,None,-5,-4,2,-1,2,6,5,1,1757008468771595239
0,0.463639021,20250904135428772,None,7,0,2,-1,1,-4,-4,-5,1757008468771726846
0,0.471208096,20250904135428779,None,1,8,5,4,1,-2,0,1,1757008468779268264
0,0.471357584,20250904135428779,None,-1,1,0,1,0,2,7,-1,1757008468779383182
0,0.48605752,20250904135428794,None,0,-1,-4,-3,-1,0,-7,-3,1757008468794123411
0,0.48619318,20250904135428794,None,-4,1,1,0,9,6,3,-5,1757008468794253349
0,0.49351883,20250904135428801,None,3,-2,0,-1,-15,-2,8,6,1757008468801536321
0,0.493678093,20250904135428802,None,3,-1,-2,-1,-1,0,-4,-2,1757008468801649332
0,0.501073122,20250904135428809,None,1,-3,1,4,2,-1,3,0,1757008468809045553
0,0.501261711,20250904135428809,None,-2,-2,-6,-8,2,0,-6,-5,1757008468809161901
0,0.516140938,20250904135428824,None,-3,-3,1,-3,0,1,5,-5,1757008468824062347
0,0.516325236,20250904135428824,None,-2,0,0,2,1,2,3,1,1757008468824211597
0,0.523683787,20250904135428832,None,-3,-1,-2,-1,-4,-11,-8,-2,1757008468831591844
0,0.523939133,20250904135428832,None,5,1,0,3,6,1,1,2,1757008468831722259
0,0.531270743,20250904135428839,None,4,2,2,0,-4,1,-2,-3,1757008468839239358
0,0.531456232,20250904135428839,None,-3,-1,0,2,0,0,1,0,1757008468839375734
0,0.546176195,20250904135428854,None,10,-2,-2,-1,2,2,2,3,1757008468854174375
0,0.546363592,20250904135428854,None,-3,-3,-2,1,-1,-14,-12,-1,1757008468854302406
0,0.553765536,20250904135428862,None,0,1,-3,-2,-3,-5,1,-5,1757008468861665964
0,0.554281473,20250904135428862,None,-4,0,-3,-2,1,-3,-1,-1,1757008468861811399
0,0.561086893,20250904135428869,None,2,1,-1,0,2,1,8,-1,1757008468869102001
0,0.561256409,20250904135428869,None,5,2,1,0,1,-4,-6,-2,1757008468869205236
0,0.576221228,20250904135428884,None,-7,6,2,1,1,-1,-1,-4,1757008468884181499
0,0.576408148,20250904135428884,None,2,0,-1,-5,-3,-5,6,4,1757008468884321689
0,0.583679438,20250904135428892,None,3,-2,1,4,-3,-1,-5,-1,1757008468891682386
0,0.58409977,20250904135428892,None,-4,1,0,0,0,-1,5,1,1757008468892095088
0,0.591445446,20250904135428899,None,-2,-3,-1,-2,1,2,3,-4,1757008468899339675
0,0.59165287,20250904135428900,None,-1,-4,-3,2,3,-1,-4,0,1757008468899520874
0,0.60639596,20250904135428914,None,2,2,0,2,18,3,-2,-3,1757008468914300441
0,0.606598616,20250904135428915,None,-3,-2,-3,-3,-5,0,1,3,1757008468914489746
0,0.614089966,20250904135428922,None,1,1,-1,-3,0,-1,3,1,1757008468921828508
0,0.614357233,20250904135428922,None,-2,-2,0,1,2,-2,3,1,1757008468922003269
0,0.621367455,20250904135428929,None,-3,4,-1,2,1,6,-1,4,1757008468929301500
0,0.621538401,20250904135428930,None,-11,-3,4,-2,-10,-12,-7,2,1757008468929475069
0,0.636728764,20250904135428945,None,-3,-2,-2,1,-3,-4,-1,-8,1757008468944439411
0,0.636978388,20250904135428945,None,1,2,-4,3,3,4,0,0,1757008468944685220
0,0.644178152,20250904135428952,None,-4,-4,-2,-1,1,2,-2,-1,1757008468951941490
0,0.644401312,20250904135428952,None,-3,-1,1,-2,-8,1,-2,1,1757008468952103614
0,0.651607991,20250904135428960,None,3,0,-1,1,-1,2,-1,-5,1757008468959439754
0,0.651926756,20250904135428960,None,4,-3,-2,1,-1,-4,-3,5,1757008468959665060
0,0.666596651,20250904135428975,None,-8,-2,-1,-2,-3,-1,2,-1,1757008468974399805
0,0.666828633,20250904135428975,None,4,1,-1,-2,0,-2,-6,-4,1757008468974722146
0,0.674225331,20250904135428982,None,0,-2,-2,-4,-6,-6,-3,-1,1757008468981955766
0,0.674389601,20250904135428982,None,-3,-1,-1,2,-2,0,12,-6,1757008468982129096
0,0.681734801,20250904135428990,None,0,0,-1,-1,-2,0,-6,-2,1757008468989481449
0,0.681939125,20250904135428990,None,2,-3,-3,-3,-1,3,8,-2,1757008468989667415
0,0.696723223,20250904135429005,None,-2,-3,-3,0,0,0,-7,0,1757008469004449844
0,0.696935177,20250904135429005,None,4,0,1,-3,-3,-15,-20,-3,1757008469004642486
0,0.704559088,20250904135429013,None,0,-3,0,-1,-1,-4,-1,2,1757008469012161970
0,0.704743386,20250904135429013,None,1,-1,5,0,1,8,3,2,1757008469012412071
0,0.712018967,20250904135429020,None,1,-1,-1,-2,-4,0,-2,0,1757008469019711256
0,0.712176562,20250904135429020,None,-4,-2,0,-4,-3,-3,-6,0,1757008469019894361
0,0.726596594,20250904135429035,None,-2,-2,-2,1,-8,3,4,-3,1757008469034424304
0,0.72676158,20250904135429035,None,-2,-4,-4,-8,-5,1,4,1,1757008469034601211
0,0.733872414,20250904135429042,None,1,-1,0,-8,-7,-2,-5,-6,1757008469041703701
0,0.734063864,20250904135429042,None,-8,2,2,1,4,-3,-5,3,1757008469041804790
0,0.741418124,20250904135429049,None,7,2,-3,1,-1,-3,-2,-3,1757008469049237251
0,0.741593838,20250904135429050,None,-4,-2,-1,5,1,0,-1,-4,1757008469049345016
0,0.756348372,20250904135429064,None,-7,-7,-4,-2,-1,2,-1,-3,1757008469064251184
0,0.756512165,20250904135429064,None,-4,1,5,3,0,-2,2,3,1757008469064353466
0,0.763885737,20250904135429072,None,0,-4,2,0,-4,-5,-5,-2,1757008469071714401
0,0.764048815,20250904135429072,None,2,-4,-3,-3,-1,0,-3,-1,1757008469071807146
0,0.771404505,20250904135429079,None,-3,-1,-1,0,0,3,9,1,1757008469079258441
0,0.771569491,20250904135429080,None,5,4,-2,0,-1,-1,-13,1,1757008469079351663
0,0.786774874,20250904135429095,None,-6,0,-4,-3,1,-6,-3,-3,1757008469094508647
0,0.78699112,20250904135429095,None,6,1,-1,-2,-1,1,1,-1,1757008469094693899
0,0.794131041,20250904135429102,None,2,-3,-3,-1,-1,5,8,2,1757008469101847410
0,0.794336796,20250904135429102,None,-5,-3,-2,-1,0,-2,-6,0,1757008469102009296
0,0.801357985,20250904135429109,None,2,1,1,-3,2,2,2,-1,1757008469109285116
0,0.801517725,20250904135429109,None,-2,-4,-4,-1,-1,-3,-1,-2,1757008469109435558
0,0.816668988,20250904135429125,None,0,0,-2,-2,-4,-5,-1,-4,1757008469124724388
0,0.816773176,20250904135429125,None,-2,1,-1,-1,0,-4,-2,-4,1757008469124848365
0,0.82379818,20250904135429132,None,-1,-1,-4,0,0,-3,-6,2,1757008469131814956
0,0.823919058,20250904135429132,None,-3,-3,2,-1,-6,-4,-1,0,1757008469131942987
0,0.831139326,20250904135429139,None,-3,4,11,3,2,2,-1,-5,1757008469139202356
0,0.831235171,20250904135429139,None,0,-1,-3,-4,-7,-1,6,3,1757008469139329195
0,0.846170187,20250904135429154,None,2,1,-2,-4,-2,-6,-9,0,1757008469154185771
0,0.846277714,20250904135429154,None,3,3,-1,5,5,11,3,-4,1757008469154323339
0,0.853663445,20250904135429162,None,11,1,-4,-2,-4,-11,-6,3,1757008469161699056
0,0.853764057,20250904135429162,None,-3,-3,-3,-8,-2,-1,0,2,1757008469161818027
0,0.861083985,20250904135429169,None,-5,1,-1,2,1,1,2,-4,1757008469169172286
0,0.861166001,20250904135429169,None,-3,-2,3,2,1,0,8,2,1757008469169250488
0,0.876261711,20250904135429184,None,-1,-2,-8,-6,-6,-6,-17,0,1757008469184187650
0,0.876400471,20250904135429184,None,-6,0,0,1,1,2,0,-2,1757008469184330940
0,0.883684159,20250904135429192,None,5,2,0,2,0,0,2,-2,1757008469191739559
0,0.883811474,20250904135429192,None,1,-4,-4,-2,1,1,2,-3,1757008469191862106
0,0.89150548,20250904135429199,None,-1,-1,4,-4,-2,-1,1,4,1757008469199310541
0,0.891651631,20250904135429200,None,1,-2,-2,-5,1,5,3,0,1757008469199493169
0,0.906190157,20250904135429214,None,5,0,-4,-1,-1,-5,-6,-6,1757008469214178562
0,0.906275273,20250904135429214,None,-1,-6,-6,-3,-3,-6,-5,0,1757008469214310407
0,0.913919926,20250904135429222,None,0,-4,-4,-5,-17,-3,3,-1,1757008469221826791
0,0.914049864,20250904135429222,None,6,1,1,2,0,-1,3,-3,1757008469221974849
0,0.921819449,20250904135429230,None,-3,-5,-3,-2,-9,-2,-5,-3,1757008469229478359
0,0.922001362,20250904135429230,None,3,1,0,4,4,4,6,5,1757008469229663372
0,0.936815262,20250904135429245,None,2,-3,-5,-8,-3,4,-1,-2,1757008469244478702
0,0.937012434,20250904135429245,None,-2,-4,-1,-4,-3,-5,-8,-8,1757008469244668245
0,0.944169522,20250904135429252,None,-4,-2,-2,-1,2,-1,0,-1,1757008469251877546
0,0.944326639,20250904135429252,None,2,1,-2,-8,-7,-3,-3,-3,1757008469252062320
0,0.951564789,20250904135429260,None,-3,2,-1,1,2,8,2,0,1757008469259360313
0,0.951730013,20250904135429260,None,-1,-1,0,0,0,-1,-2,1,1757008469259530067
0,0.96702981,20250904135429275,None,-6,0,-4,-4,-4,1,-2,-5,1757008469274553775
0,0.967267037,20250904135429275,None,11,2,-5,-4,-2,-1,-2,-2,1757008469274756908
0,0.974504233,20250904135429282,None,-2,-1,8,10,1,-1,0,0,1757008469282082796
0,0.974736929,20250904135429283,None,-5,-3,-1,-6,-1,1,2,0,1757008469282298088
0,0.989986897,20250904135429298,None,14,5,3,5,1,3,5,2,1757008469297122478
0,0.990204811,20250904135429298,None,-1,-1,0,-9,-6,0,-9,3,1757008469297393083
0,0.99700737,20250904135429305,None,-4,-1,1,-1,-1,-5,-1,-5,1757008469304512977
0,0.997215033,20250904135429305,None,1,4,2,0,-1,-2,-4,-2,1757008469304712772
0,1.004573107,20250904135429313,None,-1,-5,-3,-4,-1,9,9,-1,1757008469312128782
0,1.004826546,20250904135429313,None,3,-3,-2,0,1,-16,-11,-7,1757008469312379598
0,1.011671782,20250904135429320,None,4,-1,-2,-7,-4,-2,3,1,1757008469319383144
0,1.011873007,20250904135429320,None,1,-2,-7,0,0,-1,0,0,1757008469319569349
0,1.026823998,20250904135429335,None,1,-2,-1,-1,4,1,-3,3,1757008469334461688
0,1.02724576,20250904135429335,None,12,2,-2,0,3,0,0,4,1757008469334650993
0,1.033980847,20250904135429342,None,0,0,-2,-3,-4,-2,-4,-7,1757008469341689825
0,1.034157276,20250904135429342,None,0,2,-4,0,2,2,2,-1,1757008469341806173
0,1.048927069,20250904135429357,None,0,8,7,1,-2,0,6,1,1757008469356703281
0,1.049095631,20250904135429357,None,0,1,-5,0,-1,-1,-6,-1,1757008469356817722
0,1.056361676,20250904135429364,None,0,-9,-2,-1,3,-8,-9,-8,1757008469364147186
0,1.05653739,20250904135429364,None,0,-5,-6,-4,2,3,3,5,1757008469364255905
0,1.063841105,20250904135429372,None,4,-21,-5,-2,-3,-6,-3,-2,1757008469371622323
0,1.064020157,20250904135429372,None,-12,40,28,6,0,11,10,0,1757008469371716022
0,1.071180582,20250904135429379,None,10,-17,-16,-3,1,-6,-5,3,1757008469379102230
0,1.071336985,20250904135429379,None,-6,-25,-3,-2,-6,-1,3,0,1757008469379198789
0,1.086144686,20250904135429394,None,0,62,10,5,0,-2,-7,-4,1757008469394169092
0,1.086282015,20250904135429394,None,1,-9,4,5,4,-3,-3,-2,1757008469394252061
0,1.093625307,20250904135429402,None,-4,-19,-2,-4,-3,-5,-2,1,1757008469401691198
0,1.093697787,20250904135429402,None,-5,-4,-4,-4,5,2,6,-5,1757008469401790380
0,1.108641625,20250904135429417,None,2,-17,-14,2,-24,-2,0,3,1757008469416704416
0,1.108719826,20250904135429417,None,1,22,3,-10,-1,1,-1,-1,1757008469416809797
0,1.116244793,20250904135429424,None,4,3,16,-1,-3,-5,-5,2,1757008469424284458
0,1.116389275,20250904135429424,None,-1,-14,0,-1,2,0,0,-4,1757008469424443960
0,1.123508215,20250904135429431,None,-6,-54,-17,-7,6,-3,-4,5,1757008469431619882
0,1.12367177,20250904135429432,None,0,53,6,-2,-4,1,4,-6,1757008469431772708
0,1.130914927,20250904135429439,None,8,25,-1,1,4,1,-5,-8,1757008469438997983
0,1.131058693,20250904135429439,None,-2,-25,8,1,-3,-7,1,6,1757008469439121007
0,1.146308661,20250904135429454,None,-13,-7,1,1,0,5,5,-1,1757008469454262971
0,1.1465096479999999,20250904135429454,None,9,-8,-5,-3,-1,-7,-4,0,1757008469454452991
0,1.153532982,20250904135429462,None,1,21,2,0,3,0,1,5,1757008469461603641
0,1.153711796,20250904135429462,None,-1,-10,-2,0,-1,-8,-5,-2,1757008469461733579
0,1.168711663,20250904135429477,None,-4,-28,-7,-2,-1,1,-1,-1,1757008469476742744
0,1.1689314849999999,20250904135429477,None,2,26,8,3,-1,4,3,6,1757008469476884841
0,1.176058054,20250904135429484,None,6,-1,-3,0,2,4,-1,-3,1757008469484129428
0,1.1762690550000001,20250904135429484,None,-5,-46,-3,-9,4,1,0,-8,1757008469484256982
0,1.183562994,20250904135429492,None,-4,44,-3,-2,-6,-9,-6,-3,1757008469491616487
0,1.183755398,20250904135429492,None,-1,-4,8,1,1,-6,-3,0,1757008469491734266
0,1.191157341,20250904135429499,None,-6,-2,2,1,-6,2,2,3,1757008469499099254
0,1.1914522650000001,20250904135429499,None,5,-48,-5,-4,-28,0,4,1,1757008469499248266
0,1.205986262,20250904135429514,None,-6,69,3,1,-1,-4,-6,0,1757008469514123201
0,1.206162453,20250904135429514,None,-3,-29,-7,-4,-2,-3,-1,-3,1757008469514362335
0,1.2134809500000001,20250904135429521,None,-5,-7,5,3,0,5,6,0,1757008469521678686
0,1.213628531,20250904135429522,None,2,9,-3,-1,-1,-9,-9,0,1757008469521822214
0,1.22839427,20250904135429536,None,8,-38,-10,0,1,-1,2,-1,1757008469536591768
0,1.228510142,20250904135429536,None,-5,24,-2,-1,-3,-13,-4,-5,1757008469536724328
0,1.235872269,20250904135429544,None,-1,0,6,-2,-7,10,4,-1,1757008469544070959
0,1.236199856,20250904135429544,None,9,18,14,2,4,-8,-1,3,1757008469544207096
0,1.243688584,20250904135429552,None,-8,-14,-9,1,2,0,-4,-1,1757008469551645755
0,1.244002343,20250904135429552,None,-2,-32,-1,-9,-4,0,-2,0,1757008469551831960
0,1.2510283,20250904135429559,None,2,39,-2,1,0,4,-2,-4,1757008469559181451
0,1.251134873,20250904135429559,None,3,6,8,4,1,0,5,1,1757008469559380769
0,1.265903473,20250904135429574,None,-4,-9,-5,2,-1,-1,9,1,1757008469574124574
0,1.266021729,20250904135429574,None,-3,-9,-5,-1,-5,-1,-14,-6,1757008469574259757
0,1.273432017,20250904135429581,None,3,-5,-1,0,-2,1,4,-1,1757008469581649065
0,1.273524285,20250904135429581,None,-4,1,-6,2,-2,0,-2,-6,1757008469581795215
0,1.288443566,20250904135429596,None,2,2,13,-6,0,-10,-3,-2,1757008469596659660
0,1.288542033,20250904135429596,None,-5,-11,-12,-1,-4,0,-7,-6,1757008469596792936
0,1.295705796,20250904135429604,None,4,4,2,2,6,0,0,0,1757008469603973150
0,1.2958331109999999,20250904135429604,None,3,5,-1,0,-3,1,2,3,1757008469604088306
0,1.303323508,20250904135429611,None,2,-11,-2,9,1,5,4,4,1757008469611572742
0,1.303417445,20250904135429611,None,-2,-21,-8,-26,-10,0,-1,-3,1757008469611711025
0,1.310822487,20250904135429619,None,1,61,18,3,-4,-8,-3,-5,1757008469619074344
0,1.310904265,20250904135429619,None,-5,-49,-16,-5,0,-1,-2,0,1757008469619216918
0,1.325908423,20250904135429634,None,6,13,8,6,-3,-1,5,7,1757008469634119749
0,1.325996876,20250904135429634,None,4,17,1,4,0,1,0,-1,1757008469634264945
0,1.333448649,20250904135429641,None,1,-7,2,0,-3,-3,0,0,1757008469641645669
0,1.333582402,20250904135429642,None,-8,-19,-10,2,1,0,-2,-4,1757008469641817331
0,1.348389626,20250904135429656,None,-5,-11,-7,-5,3,7,-2,-2,1757008469656588554
0,1.348520994,20250904135429656,None,-5,-11,-11,-12,-12,-15,-4,-6,1757008469656732559
0,1.355890274,20250904135429664,None,10,3,2,10,-2,-6,-3,-2,1757008469664064884
0,1.356024981,20250904135429664,None,1,4,0,-1,-1,7,0,2,1757008469664211750
0,1.363279581,20250904135429671,None,-1,5,-6,-3,1,6,1,3,1757008469671527147
0,1.36343503,20250904135429671,None,-4,-40,7,1,-3,-7,-2,-6,1757008469671659469
0,1.370806456,20250904135429679,None,2,44,-1,-2,-3,-3,-1,3,1757008469679030179
0,1.371208191,20250904135429679,None,2,0,-2,0,21,0,5,1,1757008469679159402
0,1.385978699,20250904135429694,None,-2,-40,-25,-9,-4,-4,-7,-6,1757008469694065809
0,1.386148691,20250904135429694,None,-3,24,17,-1,1,1,0,1,1757008469694200038
0,1.393286705,20250904135429701,None,10,8,-5,5,6,10,6,2,1757008469701568841
0,1.393375635,20250904135429701,None,4,24,-2,1,-1,-4,-2,1,1757008469701673269
0,1.408419133,20250904135429716,None,-6,-10,22,-1,-1,-7,-4,-3,1757008469716592788
0,1.408564329,20250904135429717,None,-1,-5,1,2,2,-1,0,1,1757008469716723680
0,1.415729046,20250904135429724,None,-3,-11,-15,1,2,2,-3,-7,1757008469723992109
0,1.415842295,20250904135429724,None,1,-2,-2,1,-1,-1,-4,-2,1757008469724084854
0,1.423245669,20250904135429731,None,-3,-10,-6,-2,-3,0,1,-2,1757008469731485128
0,1.423374415,20250904135429731,None,-1,-11,-9,-10,-1,4,3,-1,1757008469731584548
0,1.438408375,20250904135429746,None,0,5,0,-1,-3,-8,-10,-1,1757008469746595382
0,1.438559771,20250904135429747,None,-4,-27,-7,3,2,5,2,-1,1757008469746704578
0,1.446068764,20250904135429754,None,7,48,3,1,-1,-4,0,-1,1757008469754195213
0,1.446204901,20250904135429754,None,1,-3,5,-5,-4,-5,-4,-1,1757008469754388570
0,1.453560591,20250904135429762,None,1,-20,0,3,2,0,2,-5,1757008469761759042
0,1.4536774160000001,20250904135429762,None,2,21,5,6,1,1,1,2,1757008469761940717
0,1.468897105,20250904135429777,None,3,6,-6,0,2,-1,-1,4,1757008469776776552
0,1.4690191750000001,20250904135429777,None,-5,-21,0,1,-3,-3,-2,0,1757008469776971340
0,1.476483107,20250904135429784,None,-11,-47,-22,-7,2,1,-2,-7,1757008469784420490
0,1.476564169,20250904135429785,None,-3,41,13,-3,-3,-6,-2,-1,1757008469784610748
0,1.484022856,20250904135429792,None,4,22,-16,0,-4,6,1,-3,1757008469791895389
0,1.484113932,20250904135429792,None,2,-20,19,-4,2,-10,0,5,1757008469792090654
0,1.4991040230000001,20250904135429807,None,7,32,13,6,1,1,1,0,1757008469806838512
0,1.499284029,20250904135429807,None,-13,-18,6,2,1,2,0,0,1757008469807013750
0,1.506597281,20250904135429815,None,-2,-17,-16,-5,0,3,-1,0,1757008469814368247
0,1.5067737110000001,20250904135429815,None,1,-3,-7,3,-5,1,2,0,1757008469814543008
0,1.514124394,20250904135429822,None,-4,-26,-8,-4,-4,1,1,-1,1757008469821891784
0,1.514291048,20250904135429822,None,-2,37,6,-2,1,-10,-9,-3,1757008469822064399
0,1.529223204,20250904135429837,None,-3,-9,-4,-4,-3,-3,-4,-2,1757008469836910247
0,1.5294301510000001,20250904135429837,None,-4,-17,-9,1,1,2,-3,0,1757008469837093114
0,1.5365629200000002,20250904135429845,None,-1,16,2,-3,2,5,2,2,1757008469844330549
0,1.53672576,20250904135429845,None,-2,-24,-3,6,-2,-2,-1,-2,1757008469844498157
0,1.544076443,20250904135429852,None,-4,1,-12,-6,-1,-4,-1,-1,1757008469851822853
0,1.544235945,20250904135429852,None,4,27,24,6,2,-5,0,-5,1757008469852003812
0,1.559242249,20250904135429867,None,5,-3,-3,2,-1,3,9,5,1757008469866926193
0,1.5594205859999999,20250904135429867,None,-4,-11,-8,-4,2,-1,-1,0,1757008469867110967
0,1.5666341780000002,20250904135429875,None,1,-7,-16,0,0,7,5,-4,1757008469874368906
0,1.56687212,20250904135429875,None,-3,1,9,-6,-5,-16,-9,4,1757008469874540805
0,1.574118614,20250904135429882,None,-3,-4,-5,-3,-2,-3,0,1,1757008469881877422
0,1.574308873,20250904135429882,None,-4,-5,3,1,-1,6,7,-2,1757008469882057905
0,1.589152098,20250904135429897,None,2,18,5,-2,-1,0,-8,-1,1757008469896842241
0,1.5893309119999999,20250904135429897,None,-5,-8,-12,-5,-3,-6,-4,-1,1757008469897030115
0,1.5966775420000001,20250904135429905,None,-3,-17,-1,0,-5,-1,1,-1,1757008469904387235
0,1.596895695,20250904135429905,None,0,5,8,4,3,1,0,0,1757008469904568433
0,1.604071379,20250904135429912,None,1,16,-4,-9,-4,-3,-2,0,1757008469911808490
0,1.604234696,20250904135429912,None,0,-13,-4,1,-2,4,1,-1,1757008469911978483
0,1.6190695769999999,20250904135429927,None,-2,-5,-1,0,0,-5,2,3,1757008469926830053
0,1.619228125,20250904135429927,None,-3,-9,3,0,0,0,-1,0,1757008469926956653
0,1.626356125,20250904135429934,None,-4,18,6,-3,-3,2,-5,1,1757008469934179306
0,1.626532555,20250904135429934,None,-2,-44,-3,-5,-1,-3,1,5,1757008469934250831
0,1.633810759,20250904135429942,None,5,47,-1,4,0,-3,-2,-6,1757008469941679954
0,1.633979798,20250904135429942,None,1,-25,8,-1,1,6,2,-2,1757008469941778421
0,1.649172306,20250904135429957,None,0,10,-9,1,-1,1,-3,-1,1757008469956933021
0,1.6493425369999999,20250904135429957,None,-1,-11,2,4,14,14,3,-1,1757008469957114219
0,1.6563186650000001,20250904135429964,None,3,-24,-19,-3,-26,-25,-8,-4,1757008469964146852
0,1.6565067770000002,20250904135429964,None,-1,31,2,-1,-1,1,2,-3,1757008469964259386
0,1.6642673019999998,20250904135429972,None,8,26,32,4,2,1,-7,0,1757008469971922397
0,1.664468527,20250904135429972,None,3,-13,-8,-3,3,1,0,4,1757008469972105503
0,1.679152489,20250904135429987,None,-6,-3,-1,-3,1,0,1,-4,1757008469986903190
0,1.679328919,20250904135429987,None,-7,-14,-16,-4,-4,1,0,-7,1757008469987080335
0,1.6866829399999999,20250904135429995,None,-4,6,10,1,1,1,-2,0,1757008469994404792
0,1.686895609,20250904135429995,None,2,2,-5,-6,-6,3,4,1,1757008469994583606
0,1.694206715,20250904135430002,None,0,-5,-3,0,-3,-6,-4,0,1757008470001938104
0,1.69438529,20250904135430002,None,1,12,7,1,2,-4,-1,5,1757008470002102375
0,1.709526539,20250904135430018,None,-3,18,5,-4,-1,-1,-4,-2,1757008470017053127
0,1.7097458840000002,20250904135430018,None,-1,-25,-5,-1,0,-1,-1,0,1757008470017299652
0,1.717077494,20250904135430025,None,-2,-8,-18,-2,-4,1,0,-3,1757008470024462223
0,1.7174422740000002,20250904135430025,None,12,11,11,0,0,-2,-2,1,1757008470024657487
0,1.724302531,20250904135430032,None,3,24,9,-2,-1,-2,0,3,1757008470031991481
0,1.724475384,20250904135430032,None,-5,1,-8,1,1,1,0,-6,1757008470032210826
0,1.738839627,20250904135430047,None,-1,-16,-12,1,-2,6,1,2,1757008470046799898
0,1.738978863,20250904135430047,None,-6,-2,18,6,3,-5,-3,-4,1757008470046946287
0,1.746570349,20250904135430055,None,-4,-7,-14,-10,-1,-12,-9,-6,1757008470054384231
0,1.746752501,20250904135430055,None,-1,-4,0,2,-3,0,-1,-1,1757008470054576158
0,1.753669977,20250904135430062,None,4,18,1,2,0,10,10,2,1757008470061726570
0,1.753865719,20250904135430062,None,8,8,7,1,-1,1,1,-3,1757008470061851739
0,1.768689394,20250904135430077,None,-1,23,0,3,2,-4,1,4,1757008470076698780
0,1.768838883,20250904135430077,None,2,-25,7,4,4,2,5,0,1757008470076834678
0,1.776157856,20250904135430084,None,-6,-31,-5,-3,-2,-2,-5,0,1757008470084183454
0,1.7762682440000002,20250904135430084,None,2,36,1,0,3,-5,-2,0,1757008470084323167
0,1.783582688,20250904135430092,None,-7,-82,-30,-5,-3,-1,0,-1,1757008470091643333
0,1.783676625,20250904135430092,None,-4,80,19,3,0,2,-2,-3,1757008470091755628
0,1.798687935,20250904135430107,None,6,-13,-3,-1,-4,-1,-2,-1,1757008470106757164
0,1.7988460069999999,20250904135430107,None,-1,-10,3,-4,-2,-1,1,-2,1757008470106879234
0,1.806170941,20250904135430114,None,-4,-14,0,4,-1,1,0,-6,1757008470114201068
0,1.8062875269999998,20250904135430114,None,1,8,-8,-2,14,2,-1,0,1757008470114344358
0,1.813549042,20250904135430122,None,0,6,8,-5,-2,-3,-5,-2,1757008470121666908
0,1.8136360649999999,20250904135430122,None,1,-6,-14,1,-1,12,4,-3,1757008470121776342
0,1.8286006449999999,20250904135430137,None,0,16,18,-1,-3,-21,-7,-3,1757008470136667251
0,1.8287057880000002,20250904135430137,None,-1,-13,-4,0,1,2,-2,-1,1757008470136786222
0,1.836347819,20250904135430144,None,1,3,-3,-2,2,5,7,6,1757008470144176959
0,1.836540938,20250904135430145,None,-1,3,1,-5,2,1,-2,-5,1757008470144255161
0,1.8437678819999999,20250904135430152,None,-7,-34,-14,-3,1,9,2,-4,1757008470151709794
0,1.8439395429999998,20250904135430152,None,-1,28,2,-2,-5,-8,3,-3,1757008470151872873
0,1.859067917,20250904135430167,None,12,-7,-6,0,0,-3,-7,3,1757008470166789293
0,1.859272957,20250904135430167,None,2,29,22,4,-1,5,6,3,1757008470166926622
0,1.866230965,20250904135430174,None,-2,-6,1,0,3,0,-2,-2,1757008470174247741
0,1.866371393,20250904135430174,None,-2,-5,-11,0,0,0,4,0,1757008470174427986
0,1.873972178,20250904135430182,None,-4,-17,2,-1,-2,4,3,1,1757008470181895494
0,1.8740887640000001,20250904135430182,None,1,5,-12,1,0,-9,-6,-3,1757008470182073593
0,1.888834954,20250904135430197,None,4,-31,-4,-2,6,2,0,-1,1757008470196821689
0,1.888915301,20250904135430197,None,0,44,20,2,3,1,3,-2,1757008470197003602
0,1.896498204,20250904135430204,None,1,-8,-5,1,-1,1,-3,-2,1757008470204439878
0,1.896626234,20250904135430205,None,-1,-7,-7,-1,0,-1,4,-1,1757008470204607009
0,1.903632403,20250904135430212,None,-3,-8,1,-3,0,2,-1,-2,1757008470211679935
0,1.903730154,20250904135430212,None,-5,-21,-29,-6,-5,-2,-3,0,1757008470211808443
0,1.918996573,20250904135430227,None,5,17,20,0,-6,-8,-3,0,1757008470226732254
0,1.91911006,20250904135430227,None,4,4,0,-1,2,-2,-1,-1,1757008470226849317
0,1.926118851,20250904135430234,None,-1,-39,-11,-3,-1,5,1,2,1757008470234170913
0,1.9262211329999999,20250904135430234,None,-4,42,12,-1,-2,3,4,-4,1757008470234260082
0,1.933643103,20250904135430242,None,5,12,3,3,6,0,-3,-1,1757008470241730928
0,1.933752299,20250904135430242,None,2,-21,7,-1,-4,-1,-1,3,1757008470241844415
0,1.948611737,20250904135430257,None,-4,16,-3,-3,2,9,2,2,1757008470256659746
0,1.948717356,20250904135430257,None,1,-14,-7,2,3,-5,-4,2,1757008470256777763
0,1.9560768610000001,20250904135430264,None,-4,-4,1,1,-3,-9,-8,-6,1757008470264154911
0,1.9561672209999998,20250904135430264,None,2,4,3,-1,4,-3,0,1,1757008470264254093
0,1.963704109,20250904135430272,None,-7,-8,-6,-3,-1,4,1,-4,1757008470271739721
0,1.963824272,20250904135430272,None,0,3,-2,-3,0,-3,-2,-2,1757008470271865844
0,1.9788029200000001,20250904135430287,None,3,4,-6,3,-1,0,-2,2,1757008470286844730
0,1.978931427,20250904135430287,None,-4,4,13,3,1,2,-5,-2,1757008470286972761
0,1.98616314,20250904135430294,None,2,-5,-7,0,-1,-6,1,-1,1757008470294205665
0,1.986273289,20250904135430294,None,-4,-4,-1,-5,0,-1,-6,-3,1757008470294347524
0,1.993652582,20250904135430302,None,-2,-9,-14,-1,-3,-1,-3,0,1757008470301720857
0,1.993761063,20250904135430302,None,-4,-12,21,2,0,1,0,-3,1757008470301841259
0,2.008690357,20250904135430317,None,7,8,-7,5,0,-2,-3,6,1757008470316700696
0,2.008862019,20250904135430317,None,-9,11,-2,-13,-5,-5,1,-5,1757008470316832780
0,2.01599145,20250904135430324,None,3,25,4,-1,1,4,0,-2,1757008470324087142
0,2.016079665,20250904135430324,None,0,-1,13,10,-5,5,8,2,1757008470324207305
0,2.023565054,20250904135430332,None,-1,-24,-9,-2,5,-1,-13,2,1757008470331649780
0,2.023660183,20250904135430332,None,-7,-12,-9,-1,-4,-5,-4,-1,1757008470331765413
0,2.038703919,20250904135430347,None,-1,0,1,-4,-6,-5,4,-2,1757008470346756696
0,2.038889647,20250904135430347,None,-4,-16,-10,-1,-4,4,3,-1,1757008470346884250
0,2.046191454,20250904135430354,None,8,21,20,0,3,2,-2,1,1757008470354209899
0,2.046317816,20250904135430354,None,5,17,5,2,2,2,-3,2,1757008470354358673
0,2.053722859,20250904135430362,None,1,2,13,2,-29,-3,2,2,1757008470361763000
0,2.053858042,20250904135430362,None,-8,-22,-7,-3,-2,-3,-1,2,1757008470361886024
0,2.068594933,20250904135430377,None,2,5,-16,-2,-2,2,0,1,1757008470376659393
0,2.068708659,20250904135430377,None,3,5,9,-4,2,-6,3,-4,1757008470376777172
0,2.076079607,20250904135430384,None,-3,-17,-14,-4,1,-3,-3,0,1757008470384143114
0,2.076175452,20250904135430384,None,4,39,17,3,-3,-2,-2,-1,1757008470384255647
0,2.083629847,20250904135430392,None,1,-3,3,0,0,0,1,2,1757008470391682386
0,2.083733321,20250904135430392,None,8,-13,-15,-2,0,7,7,-3,1757008470391802787
0,2.098683596,20250904135430407,None,-5,3,8,-5,-3,-11,-6,1,1757008470406718254
0,2.098809004,20250904135430407,None,-3,-5,-13,-1,1,-4,-1,-2,1757008470406841039
0,2.106209755,20250904135430414,None,-1,-6,0,0,-1,4,-10,1,1757008470414198637
0,2.106433392,20250904135430414,None,0,-32,-13,1,-4,0,-4,-2,1757008470414350032
0,2.113632202,20250904135430422,None,0,45,12,-1,-3,3,2,1,1757008470421685695
0,2.11373353,20250904135430422,None,-2,-4,-8,-2,4,-3,2,-4,1757008470421810388
0,2.12868309,20250904135430437,None,-6,-13,1,-2,-2,4,2,0,1757008470436696290
0,2.128813505,20250904135430437,None,-4,-13,-10,-10,-4,0,-2,4,1757008470436826229
0,2.135884524,20250904135430444,None,-2,21,18,5,4,1,-3,-6,1757008470444066047
0,2.135946989,20250904135430444,None,-6,-36,-17,-3,0,4,-6,-4,1757008470444159030
0,2.143510104,20250904135430451,None,3,11,-5,-3,-6,-7,-1,0,1757008470451629638
0,2.143615246,20250904135430452,None,5,47,15,2,0,4,0,2,1757008470451740980
0,2.158698082,20250904135430467,None,0,-13,0,3,20,6,2,-2,1757008470466743946
0,2.158834696,20250904135430467,None,-6,-31,-7,1,-12,-3,-3,-1,1757008470466881752
0,2.166039229,20250904135430474,None,-5,14,-7,-7,-1,3,1,-2,1757008470474183797
0,2.166154385,20250904135430474,None,5,-7,-18,3,5,-7,1,3,1757008470474340677
0,2.173505068,20250904135430481,None,1,6,11,-2,-3,0,0,3,1757008470481727838
0,2.173621178,20250904135430482,None,-2,-21,7,-1,-5,2,-3,-3,1757008470481877565
0,2.188451052,20250904135430496,None,-2,15,1,1,0,-5,-2,3,1757008470496653556
0,2.188588381,20250904135430497,None,8,24,9,-4,1,-3,3,3,1757008470496786355
0,2.195917845,20250904135430504,None,-4,-12,-10,-1,-3,2,1,2,1757008470504154920
0,2.196051121,20250904135430504,None,-4,-17,-9,-1,-2,-2,-10,-7,1757008470504269361
0,2.203482151,20250904135430511,None,-7,-52,-14,-2,2,2,-3,-1,1757008470511675596
0,2.203618527,20250904135430512,None,2,38,2,1,0,-1,1,2,1757008470511820554
0,2.218493462,20250904135430526,None,5,-6,-4,0,0,0,-1,-3,1757008470526580572
0,2.218587637,20250904135430527,None,0,15,11,4,-3,1,6,1,1757008470526712656
0,2.226098776,20250904135430534,None,5,-23,-3,3,-2,-2,0,1,1757008470534238100
0,2.226196528,20250904135430534,None,3,14,10,4,6,2,-6,-3,1757008470534389495
0,2.233461857,20250904135430541,None,-5,-7,-5,-6,-3,-3,-4,-4,1757008470541651964
0,2.23355031,20250904135430542,None,-9,-34,-25,-5,-6,-3,-7,-3,1757008470541803836
0,2.248514653,20250904135430556,None,-2,15,12,4,-34,-4,5,-2,1757008470556593894
0,2.248666048,20250904135430557,None,5,28,11,-1,-1,-5,0,-1,1757008470556941509
0,2.2558019160000002,20250904135430564,None,0,-10,-3,-2,-1,0,1,3,1757008470564044952
0,2.255876303,20250904135430564,None,-5,-8,4,-11,-4,-10,-4,-4,1757008470564177036
0,2.263461829,20250904135430571,None,-4,-8,-9,-4,-1,0,0,-1,1757008470571692943
0,2.263576508,20250904135430572,None,-3,-17,-4,0,5,18,10,-1,1757008470571825504
0,2.279095888,20250904135430587,None,4,53,23,6,-1,-19,-11,-1,1757008470587129831
0,2.279173136,20250904135430587,None,4,13,2,0,-2,-6,-1,3,1757008470587409734
0,2.286537409,20250904135430594,None,-6,-3,-4,-8,-8,-2,-9,-6,1757008470594562530
0,2.2866497040000002,20250904135430595,None,0,-23,-11,6,5,7,1,0,1757008470594761371
0,2.293950796,20250904135430602,None,-6,17,9,0,0,1,-3,0,1757008470602038860
0,2.294212342,20250904135430602,None,-3,-42,-17,-6,1,2,1,-4,1757008470602260112
0,2.309211493,20250904135430617,None,0,33,17,0,-8,-3,-4,-1,1757008470617014646
0,2.3093898299999998,20250904135430617,None,3,-1,3,1,-2,1,-1,2,1757008470617210149
0,2.316723109,20250904135430625,None,-4,-14,-26,-4,-5,1,-4,-1,1757008470624533414
0,2.3169836999999998,20250904135430625,None,-6,-4,6,-3,4,3,1,-4,1757008470624722480
0,2.332123995,20250904135430640,None,3,-14,5,-1,-2,-1,1,0,1757008470639766931
0,2.332316876,20250904135430640,None,2,35,1,-8,-1,-6,-8,-3,1757008470639986515
0,2.339071513,20250904135430647,None,0,-10,-3,10,-1,2,1,5,1757008470646904230
0,2.339245081,20250904135430647,None,-8,-70,-27,2,1,-5,-1,-3,1757008470647072553
0,2.346279383,20250904135430654,None,0,95,27,-2,-2,4,-1,-3,1757008470654286861
0,2.346466542,20250904135430654,None,7,-6,5,-1,-3,0,-1,0,1757008470654409408
0,2.3613464840000002,20250904135430669,None,-2,-18,-8,-3,-31,-5,-4,1,1757008470669223785
0,2.361501217,20250904135430669,None,-5,-4,-22,-6,-1,15,9,-3,1757008470669346094
0,2.368649483,20250904135430677,None,1,-2,14,5,0,-21,-16,0,1757008470676651000
0,2.3688128,20250904135430677,None,5,-2,-5,-17,-9,-11,-4,-1,1757008470676755428
0,2.37625289,20250904135430684,None,-1,1,-5,0,-2,-2,-2,-1,1757008470684193372
0,2.376408577,20250904135430684,None,-5,-21,-2,-2,3,11,11,3,1757008470684254884
0,2.391335011,20250904135430699,None,-1,12,2,-4,-5,-11,-8,-9,1757008470699257135
0,2.391504288,20250904135430699,None,-1,-3,-3,2,2,2,0,-1,1757008470699361562
0,2.39885211,20250904135430707,None,-6,-46,-5,-5,-3,1,0,-5,1757008470706759452
0,2.399012327,20250904135430707,None,-3,23,-9,-2,-2,-3,3,-4,1757008470706854343
0,2.406385899,20250904135430714,None,6,47,12,5,1,1,-2,3,1757008470714245080
0,2.406559229,20250904135430715,None,-4,-41,-11,0,-11,0,-1,2,1757008470714341163
0,2.421310187,20250904135430729,None,-2,20,-3,-2,8,6,-1,-2,1757008470729216575
0,2.421487809,20250904135430729,None,3,-5,9,5,-6,-4,-3,-2,1757008470729322433
0,2.428754568,20250904135430737,None,-1,-13,-13,1,5,-1,-1,0,1757008470736700534
0,2.428951264,20250904135430737,None,-1,4,1,-5,-4,1,0,-2,1757008470736800909
0,2.436228276,20250904135430744,None,5,10,-1,-2,-4,-1,-1,-2,1757008470744187831
0,2.436404228,20250904135430744,None,-5,-8,-10,-4,2,10,3,-3,1757008470744251728
0,2.451471567,20250904135430759,None,-3,-11,-5,-1,2,-13,-5,-3,1757008470759245157
0,2.451657534,20250904135430760,None,-3,-5,-6,0,1,-2,-2,0,1757008470759521961
0,2.459504128,20250904135430767,None,-3,-20,4,-2,-2,1,-4,-2,1757008470767186641
0,2.459722996,20250904135430768,None,7,52,17,2,7,5,4,-2,1757008470767436504
0,2.467008829,20250904135430775,None,-4,-47,1,0,-3,6,4,-3,1757008470774681568
0,2.467181921,20250904135430775,None,-3,60,0,3,-4,-10,-7,-5,1757008470774878501
0,2.481927395,20250904135430790,None,3,-23,-15,-20,-6,-1,4,5,1757008470789563894
0,2.482153178,20250904135430790,None,-1,11,21,8,1,0,0,-4,1757008470789784908
0,2.488939047,20250904135430797,None,3,24,-1,-7,-1,-3,-3,-3,1757008470796808481
0,2.48912549,20250904135430797,None,0,-34,-9,2,1,-4,0,3,1757008470796975612
0,2.496537447,20250904135430805,None,8,12,7,3,-1,4,7,-2,1757008470804445266
0,2.4966802599999998,20250904135430805,None,-3,-12,-6,-8,-6,-4,-8,-2,1757008470804620742
0,2.511547804,20250904135430820,None,-4,-9,-8,-2,-3,-12,-5,-5,1757008470819412469
0,2.5117144590000002,20250904135430820,None,1,-4,4,1,-5,-3,-1,3,1757008470819595098
0,2.5191304690000003,20250904135430827,None,1,5,-3,-2,-3,2,-1,3,1757008470826852321
0,2.519351006,20250904135430827,None,0,-5,-1,2,-2,4,2,3,1757008470827036380
0,2.526697874,20250904135430835,None,-2,-7,-15,-2,1,12,3,-1,1757008470834550857
0,2.526936055,20250904135430835,None,0,-1,20,3,2,-15,-3,-1,1757008470834747076
0,2.541417361,20250904135430849,None,-5,-47,-10,-5,-4,-2,-1,-1,1757008470849383592
0,2.541618347,20250904135430850,None,5,76,15,2,-5,-6,0,5,1757008470849557399
0,2.548703432,20250904135430857,None,-3,-30,4,1,11,8,1,0,1757008470856836557
0,2.548833847,20250904135430857,None,0,26,-9,2,1,2,1,0,1757008470857023954
0,2.556256533,20250904135430864,None,-6,-43,7,-3,0,1,0,-3,1757008470864342689
0,2.556361914,20250904135430864,None,-8,2,-9,-9,-1,-3,-5,-5,1757008470864530086
0,2.571506024,20250904135430879,None,7,-7,-10,2,0,-8,-1,5,1757008470879424095
0,2.5716977119999997,20250904135430880,None,2,-18,13,8,2,-3,2,1,1757008470879610538
0,2.5789334779999997,20250904135430887,None,-5,32,-2,-2,0,1,-2,-3,1757008470887031078
0,2.579027176,20250904135430887,None,0,-23,-6,-11,0,1,4,2,1757008470887217760
0,2.586548329,20250904135430895,None,-10,-13,-9,-1,-3,-1,-2,-7,1757008470894513368
0,2.5866940019999998,20250904135430895,None,-5,-1,-2,1,-2,0,0,-2,1757008470894709587
0,2.6013996600000002,20250904135430909,None,5,6,-1,2,-8,-6,-3,-1,1757008470909489154
0,2.601499319,20250904135430909,None,-1,-28,-1,4,4,5,4,0,1757008470909673452
0,2.608845711,20250904135430917,None,-6,-7,-6,-3,-1,0,-2,-2,1757008470916945219
0,2.608927727,20250904135430917,None,-3,32,12,0,1,2,1,1,1757008470917131662
0,2.616342068,20250904135430924,None,-1,-8,1,-5,-5,11,4,-3,1757008470924476146
0,2.61640811,20250904135430924,None,0,-6,-6,2,-2,-16,-8,-4,1757008470924657583
0,2.6314227580000003,20250904135430939,None,-3,-24,-5,0,0,-4,0,-2,1757008470939505338
0,2.631505728,20250904135430939,None,1,26,0,1,-2,4,-1,3,1757008470939696550
0,2.638888359,20250904135430947,None,0,1,6,1,2,4,1,0,1757008470946919441
0,2.639049292,20250904135430947,None,-1,-5,-1,-5,-4,-6,-5,-2,1757008470947107791
0,2.646359444,20250904135430954,None,1,9,3,-2,-2,-1,-6,-3,1757008470954502820
0,2.646429062,20250904135430954,None,3,-7,3,3,2,3,2,8,1757008470954685211
0,2.661381722,20250904135430969,None,0,3,1,-4,-6,-2,-3,-4,1757008470969460964
0,2.661480665,20250904135430969,None,-7,-7,-5,1,4,-12,-8,-5,1757008470969651699
0,2.668912888,20250904135430977,None,-3,-12,-9,1,9,4,1,1,1757008470976849079
0,2.669026375,20250904135430977,None,-4,-25,-13,-9,0,4,1,2,1757008470977024078
0,2.6761615279999997,20250904135430984,None,-1,-8,-14,5,15,5,2,-4,1757008470984224081
0,2.6762573720000002,20250904135430984,None,3,33,32,3,-7,1,4,1,1757008470984360933
0,2.691287279,20250904135430999,None,-3,-20,-12,-6,1,-6,-5,0,1757008470999280214
0,2.691411734,20250904135430999,None,-4,-12,-1,4,-4,0,-2,-8,1757008470999420642
0,2.698767185,20250904135431007,None,3,15,15,5,-3,0,1,-1,1757008471006841421
0,2.698884249,20250904135431007,None,1,-39,-14,-1,2,9,2,-1,1757008471006960391
0,2.706234694,20250904135431014,None,1,24,-3,1,-1,-12,-2,-1,1757008471014289855
0,2.706364632,20250904135431014,None,5,14,5,4,1,0,2,4,1757008471014416694
0,2.7213151460000002,20250904135431029,None,1,-10,21,6,0,10,9,-2,1757008471029296875
0,2.7214641569999998,20250904135431029,None,-4,-17,-6,-5,-2,-10,-5,-4,1757008471029439210
0,2.7286953929999997,20250904135431037,None,6,17,0,-2,-3,-1,-2,0,1757008471036767482
0,2.728820324,20250904135431037,None,-3,-5,-5,-1,3,1,-3,2,1757008471036890268
0,2.736135245,20250904135431044,None,-1,-5,0,-3,-1,2,-2,-3,1757008471044252157
0,2.736243487,20250904135431044,None,0,2,8,3,6,6,0,2,1757008471044426679
0,2.751392365,20250904135431059,None,2,-16,-7,-4,-6,-9,-4,2,1757008471059483289
0,2.75147748,20250904135431059,None,-3,31,-17,-1,1,0,1,-3,1757008471059674263
0,2.758812905,20250904135431067,None,0,13,32,4,1,2,-8,0,1757008471066911458
0,2.758888006,20250904135431067,None,-3,-17,-4,-2,2,3,-2,3,1757008471067109346
0,2.7663888930000002,20250904135431074,None,-3,-5,-5,0,-1,6,4,-8,1757008471074521780
0,2.76644969,20250904135431074,None,-1,-21,-13,-6,-10,-17,-12,-6,1757008471074707984
0,2.781398535,20250904135431089,None,-6,-43,-9,-4,4,-3,-4,-1,1757008471089466810
0,2.781511069,20250904135431089,None,13,108,29,-1,2,12,8,3,1757008471089653730
0,2.788868904,20250904135431097,None,0,-18,2,7,9,-3,-1,2,1757008471096948146
0,2.788988591,20250904135431097,None,-11,-52,-18,2,-5,-7,-1,-3,1757008471097143411
0,2.796373606,20250904135431104,None,5,32,13,-5,-7,-7,-2,1,1757008471104495525
0,2.796447277,20250904135431104,None,0,-13,-5,1,5,7,-2,-3,1757008471104687690
0,2.811390877,20250904135431119,None,-2,-6,-3,0,-3,4,0,-3,1757008471119457960
0,2.811492443,20250904135431119,None,-6,-3,-21,-6,-7,-3,-3,-1,1757008471119642734
0,2.819111586,20250904135431127,None,-1,-3,15,2,-1,1,2,-1,1757008471126952171
0,2.819304705,20250904135431127,None,-2,-13,-5,-5,-2,-2,-2,-3,1757008471127135753
0,2.826562882,20250904135431135,None,3,25,1,-1,-2,0,-5,-4,1757008471134451150
0,2.826755286,20250904135431135,None,3,-6,8,2,1,-3,-1,0,1757008471134624958
0,2.841634274,20250904135431150,None,-4,-3,-5,-1,-1,0,2,3,1757008471149479389
0,2.84184146,20250904135431150,None,-4,20,-8,-1,-1,-6,-5,-5,1757008471149666309
0,2.848959446,20250904135431157,None,2,2,10,3,-2,-1,-4,-2,1757008471156802415
0,2.849123001,20250904135431157,None,2,-1,-7,-5,-1,0,0,1,1757008471156988143
0,2.856618405,20250904135431165,None,-5,-18,1,0,2,4,9,-1,1757008471164472341
0,2.8568313119999997,20250904135431165,None,6,35,2,1,-4,16,3,-1,1757008471164656877
0,2.871428967,20250904135431179,None,-8,-19,-8,-9,4,-26,-11,2,1757008471179367065
0,2.871573687,20250904135431180,None,-2,16,2,0,-5,-7,-3,-4,1757008471179525375
0,2.879030943,20250904135431187,None,-1,11,6,1,4,5,2,3,1757008471186881065
0,2.879213095,20250904135431187,None,-4,-16,-6,5,-1,4,5,-3,1757008471187059402
0,2.886597872,20250904135431195,None,-3,-2,5,-10,-6,1,-2,-5,1757008471194478750
0,2.886761666,20250904135431195,None,-2,-21,-13,0,-4,0,-2,-2,1757008471194657087
0,2.901441813,20250904135431209,None,2,11,4,-4,-6,-6,1,3,1757008471209453105
0,2.9016013149999997,20250904135431210,None,2,1,-16,2,-2,1,1,0,1757008471209628582
0,2.908769608,20250904135431217,None,1,1,25,5,1,5,3,-3,1757008471216917514
0,2.90886426,20250904135431217,None,-5,-4,-6,-3,0,-5,-4,0,1757008471217097759
0,2.916284085,20250904135431224,None,2,1,-6,-3,-2,-4,0,0,1757008471224433898
0,2.91634059,20250904135431224,None,1,-5,4,0,-4,-1,0,-1,1757008471224607229
0,2.931384087,20250904135431239,None,2,18,1,2,2,-6,-2,3,1757008471239458799
0,2.931499481,20250904135431239,None,0,-1,3,5,12,7,1,0,1757008471239649295
0,2.938665152,20250904135431247,None,6,14,12,-3,-37,-10,0,8,1757008471246804952
0,2.93877101,20250904135431247,None,-6,-26,-10,-4,6,2,-2,-6,1757008471246958494
0,2.946371317,20250904135431254,None,-4,-12,-2,-7,-1,6,1,-4,1757008471254482746
0,2.9464449889999997,20250904135431254,None,-9,-75,-37,-2,2,-1,-7,-2,1757008471254656314
0,2.961417198,20250904135431269,None,10,86,28,4,1,1,0,3,1757008471269512176
0,2.961503268,20250904135431269,None,10,28,30,6,11,-5,1,7,1757008471269698381
0,2.968869686,20250904135431277,None,-6,-19,-9,-7,-4,-6,-4,-3,1757008471276961088
0,2.96931243,20250904135431277,None,-5,-14,-11,0,1,-1,-2,-2,1757008471277154922
0,2.976592303,20250904135431285,None,-4,-11,-4,-3,-1,7,3,0,1757008471284449100
0,2.976758719,20250904135431285,None,-1,-4,-4,-5,-4,-5,-2,-3,1757008471284623622
0,2.991555929,20250904135431300,None,-2,-4,-9,5,6,-4,-3,-2,1757008471299424409
0,2.991719246,20250904135431300,None,1,5,2,1,-7,-2,3,5,1757008471299606800
0,2.999067068,20250904135431307,None,4,12,18,4,9,9,-3,-2,1757008471306917667
0,2.9992756849999997,20250904135431307,None,-3,-27,-14,-4,-2,0,-3,0,1757008471307103157
0,3.00661254,20250904135431315,None,1,8,0,1,0,-3,-3,1,1757008471314457893
0,3.006821871,20250904135431315,None,2,21,6,0,-1,-1,0,-7,1757008471314649343
0,3.021607876,20250904135431330,None,-3,-9,0,2,-1,1,2,0,1757008471329461336
0,3.021818161,20250904135431330,None,-1,-14,3,-5,-4,-3,-3,0,1757008471329650402
0,3.029078961,20250904135431337,None,5,5,-9,0,1,-3,-3,-2,1757008471336927175
0,3.029245854,20250904135431337,None,-1,-5,12,4,-1,5,2,-1,1757008471337115764
0,3.036624432,20250904135431345,None,-2,-13,-15,-6,-2,-6,-5,-2,1757008471344489574
0,3.03683424,20250904135431345,None,5,11,8,-6,-4,-7,-3,2,1757008471344677209
0,3.051563978,20250904135431360,None,-7,-48,-11,0,8,-1,2,-3,1757008471359452724
0,3.051747084,20250904135431360,None,-4,41,9,-5,-2,4,-1,-7,1757008471359626293
0,3.059206486,20250904135431367,None,8,-60,-26,1,3,4,5,6,1757008471366909027
0,3.059441328,20250904135431367,None,-4,50,31,1,-8,-4,-3,-3,1757008471367087602
0,3.066559077,20250904135431375,None,-2,-37,-6,-5,0,-5,-4,1,1757008471374452590
0,3.066752911,20250904135431375,None,1,23,-5,0,-1,-6,-3,-4,1757008471374625205
0,3.081718207,20250904135431390,None,1,-5,15,3,0,3,5,0,1757008471389539957
0,3.081927061,20250904135431390,None,-9,-36,-17,-10,0,0,-5,-5,1757008471389724969
0,3.089083433,20250904135431397,None,-1,21,-1,-8,-13,-4,-4,-1,1757008471396965980
0,3.089245081,20250904135431397,None,7,24,3,1,0,5,-1,4,1757008471397145509
0,3.096606732,20250904135431405,None,-4,-15,-7,7,5,-5,-5,1,1757008471404469251
0,3.096809387,20250904135431405,None,-7,-22,4,-8,-1,3,4,0,1757008471404653310
0,3.111631632,20250904135431420,None,6,21,8,0,0,2,1,-4,1757008471419488668
0,3.111847639,20250904135431420,None,5,9,2,-1,-2,-2,2,5,1757008471419671297
0,3.1190269,20250904135431427,None,-4,-12,-4,1,-1,-1,0,1,1757008471426958322
0,3.119203568,20250904135431427,None,-10,-15,-7,-2,-3,1,-2,-2,1757008471427142858
0,3.126543522,20250904135431435,None,0,14,0,1,2,-5,-4,-1,1757008471434410810
0,3.126708508,20250904135431435,None,-1,14,3,0,-2,-11,-1,-3,1757008471434600114
0,3.142017365,20250904135431450,None,-2,-16,-4,4,6,3,3,1,1757008471449720621
0,3.142196656,20250904135431450,None,-1,-4,-1,-5,-3,2,1,1,1757008471449924945
0,3.14935112,20250904135431457,None,-11,-38,-21,-3,-4,1,-4,-8,1757008471457090139
0,3.149538994,20250904135431457,None,1,29,6,0,0,4,6,3,1757008471457348585
0,3.156988621,20250904135431465,None,4,7,7,3,2,4,2,6,1757008471464659690
0,3.157212258,20250904135431465,None,-3,-9,-3,2,2,-5,-7,-1,1757008471464859485
0,3.171675921,20250904135431480,None,-6,-30,-9,-1,0,-4,-8,-6,1757008471479469537
0,3.171889544,20250904135431480,None,-5,17,-11,-4,-3,-2,1,-1,1757008471479648828
0,3.179465294,20250904135431487,None,-1,-45,23,-1,-3,1,1,2,1757008471487071037
0,3.17967391,20250904135431488,None,0,51,0,4,-3,-5,-2,0,1757008471487303256
0,3.186526299,20250904135431494,None,3,-14,-10,1,-5,2,1,-1,1757008471494440078
0,3.186672688,20250904135431495,None,-6,-11,-9,-2,1,-1,-3,-3,1757008471494611501
0,3.201777697,20250904135431510,None,2,11,0,3,5,1,1,-1,1757008471509539365
0,3.202061653,20250904135431510,None,-4,-14,-14,-20,-12,-3,-3,-1,1757008471509743452
0,3.209159851,20250904135431517,None,7,13,11,0,5,7,-2,-3,1757008471516966104
0,3.209346772,20250904135431517,None,-2,-32,-6,3,0,-15,-4,0,1757008471517158031
0,3.216677428,20250904135431525,None,-1,36,1,-15,-8,-4,-5,3,1757008471524516820
0,3.216976166,20250904135431525,None,0,-35,-6,1,0,5,0,1,1757008471524706602
0,3.231658459,20250904135431540,None,-3,19,-1,-2,-8,-13,-9,-5,1757008471539471149
0,3.231829644,20250904135431540,None,-9,-22,-15,2,1,4,7,-4,1757008471539737701
0,3.239089489,20250904135431547,None,8,20,-6,1,3,0,-2,-1,1757008471546848297
0,3.239294052,20250904135431547,None,-3,-1,8,0,-3,1,0,-1,1757008471547003984
0,3.24667573,20250904135431555,None,-3,-6,6,-2,2,1,0,-2,1757008471554534912
0,3.246881962,20250904135431555,None,-4,-33,-26,-5,-1,-1,0,-5,1757008471554713010
0,3.261102438,20250904135431569,None,0,26,6,2,-3,0,-7,-5,1757008471569303750
0,3.261214733,20250904135431569,None,1,-7,20,3,0,0,3,7,1757008471569449901
0,3.26857543,20250904135431577,None,2,0,-9,-4,-4,-11,-4,3,1757008471576799154
0,3.268687964,20250904135431577,None,-6,-7,-10,-3,0,-1,0,-4,1757008471576931476
0,3.283906222,20250904135431592,None,-6,-13,-9,1,1,-1,-3,-2,1757008471591744661
0,3.284094572,20250904135431592,None,-6,-91,-25,-6,0,-1,0,0,1757008471591869115
0,3.291336537,20250904135431599,None,2,96,27,2,-4,-4,-4,-1,1757008471599259853
0,3.291534424,20250904135431599,None,5,25,6,0,1,4,1,3,1757008471599364042
0,3.298676968,20250904135431607,None,0,-10,-2,1,-5,-2,-2,1,1757008471606637239
0,3.298855067,20250904135431607,None,-3,-3,3,-3,-2,-11,-1,-3,1757008471606728553
0,3.313974858,20250904135431622,None,-1,5,-2,-4,-3,1,1,0,1757008471621874332
0,3.314228773,20250904135431622,None,-5,-30,-25,2,2,-3,0,3,1757008471622044086
0,3.321281672,20250904135431629,None,-5,-26,10,-3,-3,0,-4,2,1757008471629374027
0,3.321438313,20250904135431629,None,4,68,2,8,-6,1,7,1,1757008471629518747
0,3.328435898,20250904135431636,None,1,-17,10,-8,2,2,-7,0,1757008471636536598
0,3.328526736,20250904135431636,None,-3,-16,-15,-10,-4,3,-1,-2,1757008471636633396
0,3.343624354,20250904135431652,None,-4,13,-5,3,0,-7,-6,-1,1757008471651554107
0,3.343773842,20250904135431652,None,8,15,23,6,2,-1,4,1,1757008471651671886
0,3.350841284,20250904135431659,None,1,-6,-12,4,-5,-6,1,4,1757008471659007072
0,3.350936413,20250904135431659,None,-1,2,11,-5,10,3,-2,1,1757008471659146547
0,3.3585329059999998,20250904135431666,None,-2,-5,-12,-3,1,-1,2,-1,1757008471666521787
0,3.358680249,20250904135431667,None,-3,-6,-6,-7,-4,2,2,-5,1757008471666627407
0,3.381918669,20250904135431690,None,-3,-29,-1,-4,-2,-1,-9,-5,1757008471689913749
0,3.382063628,20250904135431690,None,11,55,5,3,-4,-4,0,1,1757008471689987421
0,3.382656575,20250904135431691,None,-8,-30,6,2,-3,1,-3,2,1757008471690731287
0,3.382732392,20250904135431691,None,-6,2,-17,-5,-6,-13,-3,-4,1757008471690864086
0,3.388589859,20250904135431697,None,-1,-11,4,-3,-4,-3,-1,-2,1757008471696596145
0,3.388702393,20250904135431697,None,1,14,-9,-2,0,2,3,2,1757008471696691751
0,3.404102087,20250904135431712,None,2,15,23,5,0,4,-1,1,1757008471711846351
0,3.404322148,20250904135431712,None,-2,6,-1,-1,-2,1,0,0,1757008471712033987
0,3.411512614,20250904135431719,None,0,-20,-5,-2,0,1,5,0,1757008471719162225
0,3.411694765,20250904135431720,None,-6,-5,-10,-3,-10,-1,-7,-1,1757008471719427824
0,3.418658257,20250904135431727,None,-3,-7,-18,-3,2,0,1,-2,1757008471726655244
0,3.418806076,20250904135431727,None,1,7,20,14,3,1,-1,-3,1757008471726788520
0,3.433727026,20250904135431742,None,-3,-4,-2,-2,0,-5,0,2,1757008471741666555
0,3.433907986,20250904135431742,None,5,-18,-3,-7,-4,0,3,2,1757008471741798162
0,3.441164255,20250904135431749,None,1,47,0,0,-1,-2,3,6,1757008471749173641
0,3.441282034,20250904135431749,None,-8,-41,1,4,1,2,-1,-7,1757008471749248504
0,3.448631287,20250904135431757,None,2,34,-2,9,4,-1,-3,-4,1757008471756692886
0,3.448737383,20250904135431757,None,0,-13,-11,-15,-6,-1,-9,-5,1757008471756820678
0,3.464125395,20250904135431772,None,-1,-6,-1,2,3,2,0,1,1757008471771958351
0,3.4642848969999998,20250904135431772,None,4,8,20,3,2,2,2,2,1757008471772142171
0,3.471411944,20250904135431779,None,-2,1,-8,-1,-2,10,6,1,1757008471779370307
0,3.471550703,20250904135431780,None,-4,-17,-11,-5,2,-18,-11,-1,1757008471779534339
0,3.486335278,20250904135431794,None,3,13,3,6,8,0,-1,-3,1757008471794314384
0,3.4864909649999998,20250904135431794,None,2,13,6,0,-4,4,1,1,1757008471794486999
0,3.4936134819999998,20250904135431802,None,-3,-1,3,-1,0,0,-1,0,1757008471801673173
0,3.493725777,20250904135431802,None,-5,-12,-7,-5,-3,2,-1,-6,1757008471801802158
0,3.501148224,20250904135431809,None,0,-10,-7,-2,-12,-1,-3,2,1757008471809195518
0,3.501260519,20250904135431809,None,5,24,11,5,6,-4,-5,0,1757008471809335231
0,3.508596659,20250904135431817,None,3,20,1,4,0,-1,-3,0,1757008471816660881
0,3.508706332,20250904135431817,None,-1,-15,7,0,-2,-1,-4,-1,1757008471816785097
0,3.523610592,20250904135431832,None,-1,-3,-4,0,-5,-1,-1,0,1757008471831678628
0,3.523734331,20250904135431832,None,-9,17,-2,-2,3,0,-3,-6,1757008471831805944
0,3.531235695,20250904135431839,None,0,4,-10,-2,-3,4,2,-3,1757008471839217662
0,3.531358719,20250904135431839,None,4,19,21,-1,0,-3,-1,0,1757008471839368343
0,3.53854084,20250904135431846,None,4,11,-9,0,-2,-8,-4,-1,1757008471846604585
0,3.5386390690000002,20250904135431847,None,2,-8,9,0,-4,3,2,1,1757008471846729993
0,3.553617001,20250904135431862,None,-1,-5,-2,1,5,4,0,-1,1757008471861660957
0,3.55371666,20250904135431862,None,-4,-7,-8,1,2,1,-4,-3,1757008471861781358
0,3.56109047,20250904135431869,None,6,9,-3,2,-2,7,3,0,1757008471869156360
0,3.561182499,20250904135431869,None,-5,-4,-2,-5,-4,-14,0,-4,1757008471869287967
0,3.568603039,20250904135431877,None,-1,-6,-13,0,1,-4,-10,0,1757008471876648426
0,3.568710804,20250904135431877,None,5,17,24,6,2,0,-3,1,1757008471876768589
0,3.583616019,20250904135431892,None,1,14,-2,-1,2,1,-3,-3,1757008471891679525
0,3.583747149,20250904135431892,None,-7,-36,-18,-6,-2,-2,2,-3,1757008471891804218
0,3.591122389,20250904135431899,None,-1,1,-10,3,-2,-2,-1,0,1757008471899191379
0,3.591216803,20250904135431899,None,4,-12,18,0,0,0,2,5,1757008471899332523
0,3.598570824,20250904135431907,None,-3,34,-7,0,3,-4,-1,2,1757008471906673669
0,3.598665476,20250904135431907,None,-2,-23,17,0,5,12,3,2,1757008471906786441
0,3.613632679,20250904135431922,None,-4,-11,-11,-1,-2,-6,0,3,1757008471921675443
0,3.613777161,20250904135431922,None,-4,-36,-6,-1,-3,-3,-2,-4,1757008471921801328
0,3.6211540700000002,20250904135431929,None,3,73,7,-1,-7,0,-4,1,1757008471929176568
0,3.621275187,20250904135431929,None,-5,-23,1,0,3,0,1,-1,1757008471929315567
0,3.6285746100000003,20250904135431937,None,-2,-6,-6,-6,-8,1,-1,-1,1757008471936668395
0,3.628673077,20250904135431937,None,3,-6,-2,-2,1,14,2,-1,1757008471936789512
0,3.643398285,20250904135431951,None,-4,-12,-9,-2,-1,-13,-6,-2,1757008471951560020
0,3.643503905,20250904135431951,None,-1,-5,6,2,3,-1,2,0,1757008471951672315
0,3.650895119,20250904135431959,None,0,14,5,2,-1,14,8,4,1757008471959109783
0,3.65114975,20250904135431959,None,4,31,6,4,-3,-19,-9,3,1757008471959219217
0,3.6586833,20250904135431967,None,-7,-16,-15,-7,1,-4,-5,-3,1757008471966708421
0,3.658839464,20250904135431967,None,-4,-8,-1,-8,-5,3,-2,-4,1757008471966829299
0,3.673677206,20250904135431982,None,1,18,10,5,2,3,-1,-4,1757008471981687068
0,3.673828125,20250904135431982,None,-7,-43,-11,-4,2,4,1,-4,1757008471981826305
0,3.681154251,20250904135431989,None,1,20,7,1,-6,-1,-4,-1,1757008471989190816
0,3.6813004019999997,20250904135431989,None,1,25,10,2,2,2,8,0,1757008471989331483
0,3.688638687,20250904135431997,None,-2,-21,-10,-7,0,2,-3,0,1757008471996663093
0,3.688760758,20250904135431997,None,-4,-55,-15,-1,-2,-8,-8,0,1757008471996806383
0,3.703643322,20250904135432012,None,-1,24,-11,0,-5,-7,-1,-2,1757008472011680364
0,3.703751564,20250904135432012,None,-1,-4,17,0,4,6,4,4,1757008472011808872
0,3.711141825,20250904135432019,None,8,10,2,5,7,1,2,7,1757008472019198894
0,3.711261034,20250904135432019,None,-4,-8,-7,2,1,-3,-2,0,1757008472019334316
0,3.718662024,20250904135432027,None,-5,-10,-6,-6,-6,-2,-1,-2,1757008472026705980
0,3.718772412,20250904135432027,None,-3,-7,-11,-6,-3,1,0,-3,1757008472026839017
0,3.733603478,20250904135432042,None,1,0,4,3,-2,-4,-4,1,1757008472041659593
0,3.733721257,20250904135432042,None,0,2,4,1,5,12,10,2,1757008472041783809
0,3.7411432270000002,20250904135432049,None,3,7,-2,2,-2,-15,-10,-1,1757008472049181699
0,3.7412490849999998,20250904135432049,None,-3,-1,-5,-5,-1,-8,-3,0,1757008472049324512
0,3.7486057280000002,20250904135432057,None,0,-1,6,0,-3,0,-1,5,1757008472056689500
0,3.748713017,20250904135432057,None,-1,2,0,-3,0,1,1,-6,1757008472056808471
0,3.763624668,20250904135432072,None,-1,0,-1,0,-10,-3,0,-3,1757008472071696996
0,3.763712406,20250904135432072,None,-3,-31,-7,-1,12,17,3,-1,1757008472071817398
0,3.771172047,20250904135432079,None,11,52,7,-5,6,5,-3,2,1757008472079204082
0,3.771276713,20250904135432079,None,1,-7,0,1,0,1,0,3,1757008472079354763
0,3.7786333560000003,20250904135432087,None,-7,-60,-20,-5,-14,-8,-2,-2,1757008472086709976
0,3.778730393,20250904135432087,None,4,50,23,0,-2,0,-1,2,1757008472086831092
0,3.793612719,20250904135432102,None,-4,-75,-21,0,1,0,2,3,1757008472101650476
0,3.793725968,20250904135432102,None,0,40,5,4,2,6,5,-3,1757008472101770401
0,3.801633358,20250904135432110,None,1,-15,3,0,-9,-1,-5,2,1757008472109402894
0,3.801844836,20250904135432110,None,3,4,0,-5,-10,-15,-7,1,1757008472109579324
0,3.808682442,20250904135432117,None,-4,-1,11,10,0,1,7,-2,1757008472116678237
0,3.808833123,20250904135432117,None,-7,-22,-26,-16,-2,0,-3,-2,1757008472116821050
0,3.824095249,20250904135432132,None,0,8,19,-1,11,16,9,-4,1757008472131912469
0,3.824257374,20250904135432132,None,-1,2,-1,0,-6,-20,-15,-2,1757008472132088899
0,3.831327677,20250904135432139,None,-3,3,-2,-2,-4,-5,3,-1,1757008472139359474
0,3.831435204,20250904135432139,None,-4,-11,-3,6,4,7,5,2,1757008472139498472
0,3.838826895,20250904135432147,None,0,8,-1,-9,0,-2,-5,0,1757008472146809339
0,3.838984728,20250904135432147,None,-9,-33,-10,-7,-4,2,3,-2,1757008472146939992
0,3.853732109,20250904135432162,None,1,26,0,3,-5,0,-2,-1,1757008472161779642
0,3.853870631,20250904135432162,None,0,-13,6,4,9,5,1,3,1757008472161908388
0,3.869833708,20250904135432178,None,-3,-8,-6,-5,-3,2,0,1,1757008472177641153
0,3.870051384,20250904135432178,None,4,13,7,-1,1,5,2,-2,1757008472177827119
0,3.870532275,20250904135432179,None,-3,-17,-10,-7,-10,-5,-3,0,1757008472178325176
0,3.870695353,20250904135432179,None,2,6,3,3,4,-4,-7,-4,1757008472178468942
0,3.884578467,20250904135432193,None,0,0,1,2,-6,0,1,1,1757008472192284107
0,3.8847675329999998,20250904135432193,None,-5,-26,-19,4,12,5,0,-3,1757008472192717790
0,3.891998053,20250904135432200,None,2,46,16,-1,7,6,2,-2,1757008472199708461
0,3.892178774,20250904135432200,None,-4,-24,-6,-4,-11,-7,-3,5,1757008472199917078
0,3.898762942,20250904135432207,None,-6,-10,-6,-2,1,-2,-1,-4,1757008472206737041
0,3.89887476,20250904135432207,None,-2,-5,-2,4,0,10,2,-3,1757008472206871271
0,3.914046765,20250904135432222,None,1,2,-4,2,-3,-9,-2,-1,1757008472221805810
0,3.914211035,20250904135432222,None,3,3,3,-2,0,-9,-7,0,1757008472221937179
0,3.921415568,20250904135432229,None,0,0,4,2,-27,-8,-4,-2,1757008472229206800
0,3.921596051,20250904135432230,None,4,11,10,7,33,9,5,3,1757008472229339838
0,3.928690911,20250904135432237,None,0,-7,-12,0,1,3,2,0,1757008472236713886
0,3.92888403,20250904135432237,None,-4,-3,-5,0,-8,-7,-5,3,1757008472236817359
0,3.943874359,20250904135432252,None,-2,2,7,-3,-8,-10,-5,-11,1757008472251664638
0,3.94405365,20250904135432252,None,-1,-27,-7,-4,3,6,5,5,1757008472251767873
0,3.951300144,20250904135432259,None,8,57,6,3,2,-9,2,-1,1757008472259211540
0,3.95146513,20250904135432259,None,-1,-24,-3,-6,-3,-1,1,1,1757008472259349346
0,3.958906651,20250904135432267,None,-2,2,-3,5,1,4,1,1,1757008472266730308
0,3.959070444,20250904135432267,None,-3,-9,8,-2,-3,4,1,-4,1757008472266823053
0,3.973932267,20250904135432282,None,-1,-1,4,2,-10,-6,-4,0,1757008472281722307
0,3.974109173,20250904135432282,None,2,41,-8,1,8,4,6,-2,1757008472281819820
0,3.981374502,20250904135432289,None,-1,-8,7,1,4,-2,-7,-1,1757008472289211273
0,3.981549979,20250904135432290,None,-1,-11,-5,-2,-6,3,2,4,1757008472289315938
0,3.988901854,20250904135432297,None,-10,-44,-25,-3,-5,-2,-1,-3,1757008472296689987
0,3.989339352,20250904135432297,None,3,60,34,6,0,3,0,-1,1757008472296787500
0,4.003908873,20250904135432312,None,-2,-23,-4,2,1,-9,-2,4,1757008472311780929
0,4.004086256,20250904135432312,None,0,2,-2,8,12,10,1,-3,1757008472311889171
0,4.011383295,20250904135432319,None,-9,-13,-9,-13,-31,-15,-6,-2,1757008472319272518
0,4.011553049,20250904135432320,None,6,6,6,-1,4,4,0,1,1757008472319391250
0,4.018829584,20250904135432327,None,-4,-11,-6,-2,7,1,0,-2,1757008472326743364
0,4.018985749,20250904135432327,None,0,0,-10,-1,0,4,-2,1,1757008472326848506
0,4.033871413,20250904135432342,None,-6,-9,1,5,-10,-2,1,-3,1757008472341733932
0,4.034060478,20250904135432342,None,4,4,8,6,9,3,3,1,1757008472341871261
0,4.041208029,20250904135432349,None,-2,0,-2,-3,4,-2,-4,-2,1757008472349259376
0,4.041321516,20250904135432349,None,-4,-9,-9,-4,-4,-2,0,-9,1757008472349382638
0,4.048684597,20250904135432357,None,-5,-18,-11,6,2,-3,-1,-2,1757008472356735229
0,4.048816204,20250904135432357,None,5,27,18,0,-2,-4,2,3,1757008472356856346
0,4.063714266,20250904135432372,None,4,-15,-2,-1,-3,-2,5,4,1757008472371765851
0,4.063848496,20250904135432372,None,1,8,-3,4,5,6,3,-5,1757008472371896028
0,4.071842909,20250904135432380,None,0,-1,0,3,-4,-6,-3,0,1757008472379626274
0,4.072044611,20250904135432380,None,-1,-10,-2,2,7,-4,0,3,1757008472379936695
0,4.079584599,20250904135432388,None,-6,-11,-10,-9,9,1,-4,-4,1757008472387119054
0,4.079769373,20250904135432388,None,0,-6,-2,-4,25,15,-1,0,1757008472387353897
0,4.094010592,20250904135432402,None,-2,-3,1,0,-7,-9,2,0,1757008472401878118
0,4.094162703,20250904135432402,None,-1,0,5,2,-4,-3,-2,2,1757008472402042627
0,4.101923228,20250904135432410,None,2,20,7,-1,1,-6,-5,0,1757008472409513950
0,4.102151633,20250904135432410,None,0,17,-1,-3,6,11,3,-2,1757008472409719705
0,4.109381438,20250904135432417,None,-6,-24,-1,5,-3,0,1,0,1757008472417004823
0,4.10953784,20250904135432417,None,-2,-10,-22,-13,-14,-1,-4,1,1757008472417197465
0,4.125142336,20250904135432433,None,3,14,15,3,14,11,0,0,1757008472432328701
0,4.12535882,20250904135432433,None,3,-4,-5,0,-1,-10,-3,-1,1757008472432744026
0,4.131777764,20250904135432440,None,-4,-11,3,-2,-5,0,4,-2,1757008472439490795
0,4.131996155,20250904135432440,None,3,3,-5,-2,-2,-10,-2,-2,1757008472439666509
0,4.139234782,20250904135432447,None,4,7,7,2,5,5,7,4,1757008472446978092
0,4.139412642,20250904135432447,None,-5,-20,-8,-1,2,-6,-5,-7,1757008472447155237
0,4.154310942,20250904135432462,None,-8,5,-11,-5,-9,-24,-5,-3,1757008472461981296
0,4.154485226,20250904135432462,None,11,18,22,9,8,4,2,6,1757008472462186336
0,4.161838532,20250904135432470,None,-3,-7,-7,-2,-2,-2,-3,0,1757008472469493150
0,4.16201973,20250904135432470,None,-7,-5,-7,-5,-1,3,0,-5,1757008472469679594
0,4.169334889,20250904135432477,None,9,6,-1,0,-2,0,2,6,1757008472476952075
0,4.16950202,20250904135432477,None,1,24,11,-2,3,6,-1,1,1757008472477153062
0,4.184698344,20250904135432493,None,-13,-23,-3,1,12,2,0,-10,1757008472492307424
0,4.184942484,20250904135432493,None,0,-12,-4,2,8,4,-1,-3,1757008472492676496
0,4.19201994,20250904135432500,None,2,3,0,1,1,3,-4,-3,1757008472499613046
0,4.192216635,20250904135432500,None,-3,-37,-5,-1,0,-8,-3,-4,1757008472499823570
0,4.199224234,20250904135432507,None,7,53,6,-2,-16,-15,-4,-1,1757008472506955623
0,4.199388504,20250904135432507,None,-3,-19,-2,-1,18,7,1,-3,1757008472507137775
0,4.214715243,20250904135432523,None,-4,-15,-4,0,-3,1,4,-2,1757008472522142648
0,4.214961291,20250904135432523,None,0,-1,-2,3,-17,1,0,-3,1757008472522411346
0,4.222107172,20250904135432530,None,1,1,6,2,21,-1,-1,-2,1757008472529694557
0,4.222322464,20250904135432530,None,4,1,1,-3,-8,-9,1,2,1757008472529906272
0,4.237119437,20250904135432545,None,1,-3,-10,-1,-5,-4,0,2,1757008472544742107
0,4.237296582,20250904135432545,None,-5,-1,14,3,6,13,2,-2,1757008472544946193
0,4.244266987,20250904135432552,None,2,8,-20,-15,-9,-12,2,2,1757008472551963329
0,4.244472742,20250904135432552,None,-3,-1,8,3,7,-2,-6,-8,1757008472552138328
0,4.251642704,20250904135432560,None,2,2,7,-4,-3,1,3,0,1757008472559461593
0,4.251820326,20250904135432560,None,-8,-59,-19,-4,-4,2,0,0,1757008472559636592
0,4.267215252,20250904135432575,None,8,64,7,2,7,-1,-4,-3,1757008472574626922
0,4.26740098,20250904135432575,None,-5,-19,-4,-3,-3,-8,-5,1,1757008472574824810
0,4.274097204,20250904135432582,None,-2,-8,6,4,-28,-9,-5,-3,1757008472581892013
0,4.274268151,20250904135432582,None,-4,-10,-13,-8,-16,5,-1,-1,1757008472582082033
0,4.281275034,20250904135432589,None,-6,-10,-3,-4,-7,-4,-1,-1,1757008472589268922
0,4.281453848,20250904135432589,None,2,9,0,2,22,13,2,-1,1757008472589390277
0,4.296675682,20250904135432605,None,6,6,-1,3,-25,-16,-1,5,1757008472604491710
0,4.296895266,20250904135432605,None,0,3,13,2,11,1,-2,-1,1757008472604688405
0,4.304071665,20250904135432612,None,-3,-7,-10,-1,0,-1,-4,-4,1757008472611952066
0,4.304237604,20250904135432612,None,3,-1,-1,-2,2,3,0,0,1757008472612137317
0,4.311586619,20250904135432620,None,-2,1,-1,-7,-3,2,-1,-2,1757008472619528293
0,4.311751604,20250904135432620,None,1,-7,-5,1,-1,0,-2,0,1757008472619709491
0,4.326872826,20250904135432635,None,-1,5,7,-5,-4,-1,-2,-3,1757008472634536027
0,4.327289105,20250904135432635,None,2,13,-1,3,0,0,2,3,1757008472634750604
0,4.333751202,20250904135432642,None,-2,-7,5,-1,-9,-4,-4,-6,1757008472641807317
0,4.333871365,20250904135432642,None,-1,-4,-8,-3,1,9,0,-2,1757008472641937494
0,4.341417551,20250904135432649,None,-2,-11,-3,-1,-1,-6,1,0,1757008472649324655
0,4.341606856,20250904135432650,None,-6,-67,-27,-5,-25,-12,-8,-6,1757008472649498224
0,4.356372834,20250904135432664,None,7,76,19,1,17,1,-4,1,1757008472664413452
0,4.357064247,20250904135432665,None,0,-15,17,9,5,9,3,3,1757008472664571046
0,4.363630534,20250904135432672,None,-4,-16,-13,-6,0,-3,-1,-7,1757008472671757936
0,4.363714457,20250904135432672,None,-3,-10,-2,-2,-17,-1,0,-2,1757008472671894788
0,4.371121884,20250904135432679,None,-5,-2,0,2,-7,-3,3,-2,1757008472679273366
0,4.371186018,20250904135432679,None,1,-7,-8,-17,-20,-10,-2,2,1757008472679409980
0,4.386823178,20250904135432695,None,-4,-22,-3,4,17,3,-2,4,1757008472694631338
0,4.387048006,20250904135432695,None,1,21,-5,1,-7,-8,-5,-5,1757008472694915533
0,4.394070864,20250904135432702,None,0,-4,10,-3,-17,-1,3,4,1757008472702001571
0,4.394255162,20250904135432702,None,3,2,4,5,26,6,3,5,1757008472702204704
0,4.401864529,20250904135432710,None,-2,1,3,7,11,3,2,-4,1757008472709757328
0,4.402059317,20250904135432710,None,-6,-10,-15,-3,-2,5,-5,-3,1757008472709978818
0,4.416067362,20250904135432724,None,4,3,0,2,-3,1,4,0,1757008472724156379
0,4.416186571,20250904135432724,None,0,-2,10,-2,-3,-2,-4,-3,1757008472724324703
0,4.423802138,20250904135432732,None,-2,-20,-15,-6,-2,3,5,0,1757008472731801033
0,4.423923254,20250904135432732,None,0,12,0,-1,2,1,2,2,1757008472731949567
0,4.43112135,20250904135432739,None,-2,18,0,-1,-4,-3,-6,-5,1757008472739278793
0,4.431238413,20250904135432739,None,3,24,5,-4,0,-3,3,2,1757008472739414691
0,4.446505785,20250904135432754,None,-4,-15,11,2,2,0,-4,1,1757008472754492998
0,4.446708203,20250904135432755,None,-3,-9,-10,-3,-2,3,-6,-4,1757008472754705905
0,4.453814984,20250904135432762,None,-7,-7,-7,-6,3,2,-2,3,1757008472761841058
0,4.454004526,20250904135432762,None,-3,-5,-9,-5,-1,-8,-6,0,1757008472762032747
0,4.4613718989999995,20250904135432769,None,2,-3,8,0,15,3,0,-1,1757008472769409179
0,4.461565018,20250904135432770,None,2,7,-4,-2,-12,-7,1,-1,1757008472769600868
0,4.476762057,20250904135432785,None,0,4,7,-2,-4,-4,-1,-2,1757008472784471988
0,4.476974726,20250904135432785,None,-6,-3,-6,2,8,8,3,-2,1757008472784652471
0,4.484315634,20250904135432792,None,1,-7,-9,-5,-5,0,-1,0,1757008472792007923
0,4.484478474,20250904135432792,None,-3,-4,2,5,-2,-14,-1,2,1757008472792177677
0,4.491683483,20250904135432800,None,2,16,7,-8,2,3,0,2,1757008472799512863
0,4.491914034,20250904135432800,None,-10,-31,-8,-4,-15,-13,-1,-7,1757008472799696207
0,4.50675273,20250904135432815,None,3,22,-2,-1,-4,-1,-4,1,1757008472814516305
0,4.507191658,20250904135432815,None,-6,5,6,2,-10,-3,2,-3,1757008472814703464
0,4.514126063,20250904135432822,None,-4,-13,-7,-4,24,8,-1,-1,1757008472821897029
0,4.514275074,20250904135432822,None,3,2,-1,-2,1,-3,-6,-1,1757008472822075843
0,4.521360398,20250904135432829,None,-4,-11,-9,-2,-2,8,8,-3,1757008472829353809
0,4.521473885,20250904135432829,None,-3,2,6,-1,-10,-16,-10,1,1757008472829514265
0,4.536354304,20250904135432844,None,9,39,29,11,-7,-5,-4,-3,1757008472844341516
0,4.53648305,20250904135432844,None,-3,-15,-7,-7,-7,-2,0,-1,1757008472844484329
0,4.543731928,20250904135432852,None,-3,-6,-14,-3,4,1,5,2,1757008472851787328
0,4.543866158,20250904135432852,None,-4,-2,5,-2,4,2,4,-4,1757008472851915121
0,4.551236868,20250904135432859,None,-1,-7,-7,1,12,-10,-4,-1,1757008472859283447
0,4.551341296,20250904135432859,None,1,0,-4,2,3,5,-1,-1,1757008472859415292
0,4.566203118,20250904135432874,None,-2,0,1,-5,-8,1,-3,0,1757008472874265670
0,4.566308499,20250904135432874,None,-4,-6,-6,-1,-5,-8,1,-5,1757008472874386787
0,4.573689938,20250904135432882,None,-1,-5,-7,1,4,-11,-2,-2,1757008472881755828
0,4.573814631,20250904135432882,None,2,7,9,0,10,11,4,1,1757008472881877183
0,4.581227303,20250904135432889,None,-1,-4,-3,0,-9,-10,-2,-1,1757008472889285087
0,4.581330061,20250904135432889,None,0,3,0,1,-2,0,-3,-4,1757008472889410257
0,4.596287728,20250904135432904,None,-1,-7,-9,-1,-13,4,1,2,1757008472904315471
0,4.596402407,20250904135432904,None,-10,-27,1,-1,25,5,1,-5,1757008472904446601
0,4.603693247,20250904135432912,None,2,23,-5,6,4,-4,-5,-4,1757008472911768913
0,4.603825808,20250904135432912,None,4,6,15,-6,0,-5,-1,-5,1757008472911888599
0,4.611258507,20250904135432919,None,4,-40,-10,-3,-13,2,5,10,1757008472919297695
0,4.611373425,20250904135432919,None,2,70,6,1,-2,0,0,-3,1757008472919430971
0,4.626195908,20250904135432934,None,-1,-23,5,7,19,8,1,-4,1757008472934264183
0,4.626306296,20250904135432934,None,-2,-10,0,-1,-4,-9,-7,-7,1757008472934391260
0,4.633691073,20250904135432942,None,-2,-7,-14,-2,-5,-1,0,-1,1757008472941746950
0,4.633821726,20250904135432942,None,-6,-1,-3,1,-3,-3,4,-1,1757008472941878318
0,4.64123559,20250904135432949,None,-3,-13,0,0,-9,-6,-10,-2,1757008472949210882
0,4.641356707,20250904135432949,None,0,0,-4,2,32,13,7,1,1757008472949350357
0,4.65624094,20250904135432964,None,3,15,7,2,6,1,-2,0,1757008472964290380
0,4.656353951,20250904135432964,None,-2,-6,-4,0,-11,1,0,2,1757008472964428186
0,4.6636970049999995,20250904135432972,None,-5,-8,-9,-5,9,8,3,-4,1757008472971778392
0,4.663818598,20250904135432972,None,-1,-5,-5,-7,0,0,1,1,1757008472971899509
0,4.671239138,20250904135432979,None,0,3,5,-1,-8,1,-3,-1,1757008472979301691
0,4.671340943,20250904135432979,None,3,2,1,2,0,-14,-8,-1,1757008472979425907
0,4.686212302,20250904135432994,None,-2,-2,-4,-5,2,6,-1,-3,1757008472994275808
0,4.686327696,20250904135432994,None,-3,-4,-7,8,6,3,2,-5,1757008472994400501
0,4.693721772,20250904135433002,None,6,12,7,-3,-4,2,4,2,1757008473001771688
0,4.693850041,20250904135433002,None,-3,-22,-25,-5,-1,-1,-2,1,1757008473001898288
0,4.701092243,20250904135433009,None,2,37,32,0,0,-8,-5,-5,1757008473009166240
0,4.7011928560000005,20250904135433009,None,-3,-41,-8,3,-1,6,4,-4,1757008473009254217
0,4.716250181,20250904135433024,None,5,8,-8,-5,-1,-10,-2,2,1757008473024291992
0,4.716357231,20250904135433024,None,-1,24,6,-1,-9,4,3,-1,1757008473024412155
0,4.723718405,20250904135433032,None,-7,-27,-9,2,17,-3,0,1,1757008473031778097
0,4.723848105,20250904135433032,None,-5,-15,5,3,-1,-1,-4,-3,1757008473031899690
0,4.731195689,20250904135433039,None,7,13,-2,-7,-8,-4,5,-1,1757008473039259433
0,4.731285572,20250904135433039,None,-5,-12,1,-2,-17,-7,-2,-3,1757008473039371728
0,4.746234656,20250904135433054,None,4,4,0,1,10,6,4,0,1757008473054285764
0,4.746387959,20250904135433054,None,1,3,3,1,-40,-12,-8,0,1757008473054415464
0,4.753714323,20250904135433062,None,-2,-2,-4,-5,-2,-7,-7,1,1757008473061741828
0,4.753886223,20250904135433062,None,-2,1,3,7,4,3,-1,-4,1757008473061883449
0,4.761545182,20250904135433070,None,-6,-5,-15,-11,2,4,2,-5,1757008473069491624
0,4.761651993,20250904135433070,None,3,6,6,3,3,-9,-10,-1,1757008473069675445
0,4.777106285,20250904135433085,None,1,-1,-2,-3,-6,-8,-3,1,1757008473084785461
0,4.777265072,20250904135433085,None,-4,-11,-3,-3,0,5,3,0,1757008473084985256
0,4.784255743,20250904135433092,None,3,-3,3,2,3,1,-3,-1,1757008473091959714
0,4.784442187,20250904135433092,None,1,35,8,0,-7,-4,0,-4,1757008473092140436
0,4.791809798,20250904135433100,None,2,3,1,-1,2,1,0,2,1757008473099522113
0,4.791991234,20250904135433100,None,-6,-10,-4,1,6,18,5,-4,1757008473099712610
0,4.807017327,20250904135433115,None,-1,-7,-10,-5,0,-3,-2,-2,1757008473114507436
0,4.807201386,20250904135433115,None,-7,21,-6,-1,-10,-9,-4,-7,1757008473114691495
0,4.814065457,20250904135433122,None,5,1,14,0,-3,0,-7,0,1757008473121889352
0,4.814225674,20250904135433122,None,2,4,8,1,4,1,3,4,1757008473122050285
0,4.821660757,20250904135433130,None,2,11,-13,-2,3,-6,-4,1,1757008473129482269
0,4.821831703,20250904135433130,None,-3,-6,4,1,-14,-8,1,-5,1757008473129657268
0,4.83656168,20250904135433145,None,-5,-27,-10,-3,7,2,-1,0,1757008473144506931
0,4.8366777899999995,20250904135433145,None,13,56,15,1,-3,3,6,2,1757008473144694089
0,4.843993187,20250904135433152,None,-1,-15,-1,6,26,2,-1,-2,1757008473151915311
0,4.844419241,20250904135433152,None,-6,-13,-6,1,-12,-1,6,-2,1757008473152361392
0,4.851174355,20250904135433159,None,-2,-2,3,5,1,-9,-8,-2,1757008473159342765
0,4.851303578,20250904135433159,None,-3,-7,-8,-5,14,15,4,1,1757008473159588813
0,4.866129875,20250904135433174,None,1,-5,-11,1,-2,10,0,-2,1757008473174295663
0,4.866241694,20250904135433174,None,0,6,10,-7,1,-13,-6,-2,1757008473174499273
0,4.8735528,20250904135433182,None,0,0,-2,1,3,-4,-3,-2,1757008473181740522
0,4.873658896,20250904135433182,None,-3,-13,-8,-5,-23,1,-2,3,1757008473181947946
0,4.881057978,20250904135433189,None,-4,34,12,8,11,6,2,-9,1757008473189220905
0,4.881169319,20250904135433189,None,7,-4,1,-3,-1,-1,3,0,1757008473189465045
0,4.896370173,20250904135433204,None,-6,16,4,2,5,4,-1,0,1757008473204358339
0,4.896477223,20250904135433204,None,1,-15,-8,-3,-1,-2,-1,0,1757008473204527139
0,4.903906346,20250904135433212,None,-4,-18,-9,-1,-2,7,4,-2,1757008473211867094
0,4.904046774,20250904135433212,None,-1,-6,2,-1,9,-1,-2,0,1757008473212054729
0,4.911383152,20250904135433219,None,1,-5,1,-2,-20,-7,-2,3,1757008473219383716
0,4.911458493,20250904135433219,None,1,21,6,3,-1,-1,-2,-1,1757008473219560384
0,4.926320315,20250904135433234,None,-7,-13,-5,-3,-6,-13,2,-1,1757008473234315633
0,4.926398754,20250904135433234,None,-3,-8,-9,0,-4,-3,-6,-1,1757008473234500646
0,4.933823824,20250904135433242,None,0,2,11,0,-2,2,2,-2,1757008473241822004
0,4.933894396,20250904135433242,None,-4,-11,-15,-5,-2,-2,0,-3,1757008473242011308
0,4.941377163,20250904135433249,None,-1,-23,0,-1,1,1,-1,-1,1757008473249527692
0,4.941497326,20250904135433249,None,2,38,1,1,18,-2,-6,-2,1757008473249778747
0,4.956122875,20250904135433264,None,0,-17,-7,-1,0,10,12,0,1757008473264334440
0,4.956212998,20250904135433264,None,1,2,10,3,-1,-10,-11,-2,1757008473264509439
0,4.9636445049999995,20250904135433272,None,1,-6,-2,3,6,-3,-2,1,1757008473271870136
0,4.963751316,20250904135433272,None,-5,-20,-13,-6,-13,6,2,-2,1757008473272059679
0,4.971197129,20250904135433279,None,1,-1,2,-2,9,1,-4,-5,1757008473279422998
0,4.971286536,20250904135433279,None,4,41,13,-3,0,-3,-2,1,1757008473279601573
0,4.986136914,20250904135433294,None,-3,-45,-14,1,-6,-2,4,4,1757008473294357538
0,4.986233235,20250904135433294,None,2,14,5,-1,4,2,6,5,1757008473294561386
0,4.9936256409999995,20250904135433302,None,0,-3,1,0,-15,-4,-3,0,1757008473301860809
0,4.993738175,20250904135433302,None,3,-10,-3,4,1,-4,3,-1,1757008473302045106
0,5.001187086,20250904135433309,None,-2,-3,-3,-8,-2,2,-1,-3,1757008473309132337
0,5.001292706,20250904135433309,None,-2,-3,-2,-3,2,2,1,3,1757008473309257030
0,5.016050577,20250904135433324,None,1,9,3,2,2,-1,-1,0,1757008473324130058
0,5.016140938,20250904135433324,None,-3,-5,-4,2,-1,3,-4,-4,1757008473324256181
0,5.023629666,20250904135433332,None,-1,1,-8,0,1,-10,-6,-1,1757008473331690311
0,5.023728609,20250904135433332,None,1,-5,2,-3,0,3,2,2,1757008473331815242
0,5.038730145,20250904135433347,None,-1,10,10,1,-3,1,2,-3,1757008473346720457
0,5.038905859,20250904135433347,None,-3,1,-11,-1,7,10,-5,-3,1757008473346854448
0,5.046464682,20250904135433354,None,0,-4,2,2,10,-5,-5,-1,1757008473354437828
0,5.046544552,20250904135433355,None,-5,-6,3,-1,8,7,6,-1,1757008473354633331
0,5.053885937,20250904135433362,None,-4,-74,-34,-6,-8,2,-10,3,1757008473361858129
0,5.053983689,20250904135433362,None,0,81,32,5,9,-7,-7,-4,1757008473362052202
0,5.06108737,20250904135433369,None,1,-28,-8,0,-13,-2,6,3,1757008473369173288
0,5.061154127,20250904135433369,None,-4,-12,6,1,1,4,-1,-2,1757008473369254112
0,5.076348782,20250904135433384,None,-1,-4,3,5,-4,0,2,0,1757008473384148836
0,5.0765481,20250904135433385,None,0,-11,-14,-1,-5,-2,0,-1,1757008473384256362
0,5.0839324,20250904135433392,None,-7,36,6,-6,-1,10,0,-5,1757008473391669034
0,5.084121943,20250904135433392,None,-1,-6,-4,1,-1,-11,-7,1,1757008473391775369
0,5.09138465,20250904135433399,None,-1,3,2,3,-13,-5,0,-2,1757008473399178266
0,5.091576338,20250904135433400,None,1,10,2,0,22,10,-3,-4,1757008473399252176
0,5.106470347,20250904135433414,None,-1,-7,0,-2,4,0,2,-3,1757008473414190053
0,5.106878996,20250904135433415,None,-3,-12,-10,-1,1,-5,1,-4,1757008473414327859
0,5.113885403,20250904135433422,None,-1,0,3,2,-6,1,-1,-3,1757008473421654462
0,5.114091873,20250904135433422,None,10,18,13,5,-5,-3,0,-1,1757008473421771526
0,5.121314049,20250904135433429,None,-4,-9,-8,2,9,10,-2,-1,1757008473429147481
0,5.121482134,20250904135433429,None,-1,-4,7,7,-4,-10,-4,-1,1757008473429256916
0,5.136325598,20250904135433444,None,0,-22,-9,-14,1,4,0,-3,1757008473444139003
0,5.136506796,20250904135433444,None,4,21,0,-2,-5,1,0,0,1757008473444249868
0,5.143841744,20250904135433452,None,-2,2,10,6,7,7,1,-2,1757008473451632499
0,5.144020796,20250904135433452,None,-7,-9,-8,-3,-2,-7,0,1,1757008473451756954
0,5.151269198,20250904135433459,None,-4,-6,-8,3,-3,1,2,0,1757008473459165811
0,5.151421547,20250904135433459,None,2,-4,-2,-2,-4,-7,-9,-3,1757008473459252595
0,5.167219878,20250904135433475,None,-6,-35,-14,-1,19,9,4,1,1757008473474433183
0,5.167587519,20250904135433476,None,-3,56,11,0,-1,-3,-3,-2,1757008473474625110
0,5.174262286,20250904135433482,None,0,-6,1,5,2,3,-1,2,1757008473481822967
0,5.17452693,20250904135433482,None,-2,-3,-2,-3,1,-3,-5,-4,1757008473481995344
0,5.189489603,20250904135433497,None,-2,-3,1,2,-1,-2,3,-2,1757008473497001171
0,5.189701081,20250904135433498,None,-4,4,-5,-4,-3,6,3,0,1757008473497220516
0,5.19700718,20250904135433505,None,-4,-16,-7,-10,5,-8,-5,-2,1757008473504612207
0,5.197190762,20250904135433505,None,6,37,5,1,-7,-9,-3,-11,1757008473504806518
0,5.204061747,20250904135433512,None,-3,-16,-3,-7,5,-1,5,0,1757008473511798858
0,5.204226733,20250904135433512,None,-2,-9,7,1,-12,2,1,1,1757008473511973381
0,5.219625235,20250904135433528,None,-2,0,2,2,4,1,1,0,1757008473527054786
0,5.219904661,20250904135433528,None,-2,-9,-14,-2,-5,-2,-3,-5,1757008473527330875
0,5.227057696,20250904135433535,None,-3,-50,-8,-6,1,2,1,2,1757008473534650564
0,5.227254629,20250904135433535,None,5,44,0,2,10,10,-1,-6,1757008473534854650
0,5.234482527,20250904135433542,None,2,-1,16,3,-11,-2,-4,0,1757008473542082071
0,5.234679222,20250904135433543,None,0,-4,0,2,1,-7,-3,-4,1757008473542282581
0,5.249440193,20250904135433557,None,-3,-11,-14,-5,-11,6,-6,0,1757008473556949615
0,5.249665976,20250904135433558,None,-2,-3,-3,-13,0,-7,-7,-2,1757008473557183265
0,5.2564592359999995,20250904135433564,None,1,3,9,5,2,8,1,0,1757008473564203262
0,5.256623268,20250904135433565,None,1,2,-4,-3,13,-4,-2,3,1757008473564381837
0,5.263832569,20250904135433572,None,-3,-4,4,4,1,3,1,-1,1757008473571605920
0,5.26403594,20250904135433572,None,-3,-30,-10,0,-1,-1,-5,-4,1757008473571712255
0,5.278943777,20250904135433587,None,3,36,6,-2,-1,0,1,-3,1757008473586666822
0,5.279179335,20250904135433587,None,2,-11,5,2,-1,4,1,-1,1757008473586788892
0,5.286393166,20250904135433594,None,-8,-31,-8,-6,-4,-17,-8,-5,1757008473594164848
0,5.286588669,20250904135433595,None,0,21,-7,5,4,5,3,-3,1757008473594250917
0,5.293855906,20250904135433602,None,-1,9,9,-3,4,3,0,0,1757008473601649522
0,5.294031143,20250904135433602,None,7,20,5,1,-3,-7,-2,5,1757008473601752519
0,5.308824063,20250904135433617,None,-5,-10,-10,-3,-2,2,-1,-2,1757008473616617679
0,5.309003353,20250904135433617,None,-2,-52,-6,-1,-7,-5,2,8,1757008473616719007
0,5.316329241,20250904135433624,None,-1,37,-5,-1,-1,0,-5,-10,1757008473624123096
0,5.316505432,20250904135433624,None,0,-20,22,2,9,4,0,5,1757008473624220132
0,5.323721886,20250904135433632,None,1,6,-8,2,-13,1,2,1,1757008473631577491
0,5.323920012,20250904135433632,None,-5,-5,2,-2,0,1,4,-4,1757008473631667852
0,5.338860035,20250904135433647,None,-3,-9,-10,-2,1,5,1,-4,1757008473646647453
0,5.339036227,20250904135433647,None,1,-4,-5,-4,-3,-13,-7,-2,1757008473646752834
0,5.346422673,20250904135433654,None,-2,7,6,4,-1,-2,-1,0,1757008473654284000
0,5.346585274,20250904135433655,None,1,5,1,-1,8,-4,2,2,1757008473654465436
0,5.353872776,20250904135433662,None,2,-2,-1,-2,-9,-1,4,0,1757008473661642789
0,5.354057551,20250904135433662,None,-3,-7,-4,-1,28,11,-1,-3,1757008473661794900
0,5.369299889,20250904135433677,None,1,0,9,4,-16,-4,0,1,1757008473676922798
0,5.369505167,20250904135433677,None,-1,-6,-2,0,8,8,2,-2,1757008473677118062
0,5.376501322,20250904135433684,None,-4,-15,-6,3,3,-4,-1,1,1757008473684412956
0,5.376663208,20250904135433685,None,-2,21,0,-18,-10,-9,-5,-2,1757008473684578418
0,5.383891106,20250904135433692,None,4,21,3,1,3,3,7,5,1757008473691689968
0,5.384055376,20250904135433692,None,-7,-51,-7,4,6,-1,0,-1,1757008473691820383
0,5.399177552,20250904135433707,None,-5,32,2,2,-1,-1,-4,-9,1757008473706922769
0,5.399356365,20250904135433707,None,1,-22,-8,-11,4,7,5,3,1757008473707105875
0,5.406555414,20250904135433715,None,-4,-4,9,3,-3,-4,-6,1,1757008473714351415
0,5.40671897,20250904135433715,None,0,6,6,6,-2,-5,-4,-4,1757008473714524745
0,5.413838387,20250904135433722,None,-8,-31,-7,-2,-10,-5,-3,-4,1757008473721833467
0,5.413945675,20250904135433722,None,0,15,-9,0,12,11,3,-3,1757008473721991777
0,5.429028034,20250904135433737,None,6,20,16,4,5,2,6,1,1757008473736881971
0,5.429187298,20250904135433737,None,3,0,10,0,0,-2,-7,-3,1757008473737061738
0,5.436079264,20250904135433744,None,-2,-8,-4,-2,2,-6,-6,-1,1757008473744109869
0,5.436198235,20250904135433744,None,-6,-8,-6,-1,0,1,1,-4,1757008473744204998
0,5.444019079,20250904135433752,None,-4,-12,-7,-2,22,7,0,-4,1757008473751863718
0,5.444181443,20250904135433752,None,2,8,5,1,2,-3,-3,3,1757008473752044200
0,5.458876133,20250904135433767,None,5,9,8,2,0,-4,1,3,1757008473766764879
0,5.459031105,20250904135433767,None,-3,-5,-7,-1,-10,3,-4,0,1757008473766934871
0,5.466215134,20250904135433774,None,0,-6,-4,3,6,3,0,-3,1757008473774284601
0,5.466320277,20250904135433774,None,0,-9,-3,0,-2,-9,-3,-4,1757008473774419307
0,5.473544598,20250904135433782,None,3,30,6,0,-2,2,3,-5,1757008473781641006
0,5.47391367,20250904135433782,None,-4,-57,-9,-1,-1,-14,-8,7,1757008473781932115
0,5.488883734,20250904135433797,None,-5,14,1,-1,4,-1,-3,-4,1757008473796767950
0,5.4890215399999995,20250904135433797,None,3,32,3,2,0,1,2,-1,1757008473796929121
0,5.4962358479999995,20250904135433804,None,2,-24,-1,3,-5,3,0,-1,1757008473804171085
0,5.496411801,20250904135433804,None,-3,-14,-4,-9,-10,-8,-3,-2,1757008473804245710
0,5.50385046,20250904135433812,None,2,15,1,3,-17,-17,-2,2,1757008473811669826
0,5.504014492,20250904135433812,None,-3,-8,6,3,8,10,-1,-1,1757008473811770677
0,5.518452168,20250904135433826,None,-1,-8,-10,-12,-9,-13,-4,-2,1757008473826579809
0,5.518558026,20250904135433827,None,3,-14,-20,1,7,10,5,5,1757008473826708078
0,5.526012898,20250904135433834,None,2,20,26,7,-2,-11,-6,-7,1757008473834053516
0,5.526137591,20250904135433834,None,-3,-15,-3,2,22,2,0,-3,1757008473834199190
0,5.533267975,20250904135433841,None,3,32,-2,-2,-7,0,-1,-1,1757008473841444015
0,5.533416987,20250904135433841,None,-5,-21,-7,-2,-3,5,5,-3,1757008473841580867
0,5.548576594,20250904135433857,None,0,-4,-4,-2,0,-2,3,-1,1757008473856606483
0,5.548990488,20250904135433857,None,-1,-3,-5,0,0,-1,-1,0,1757008473856785774
0,5.556146622,20250904135433864,None,1,2,4,-4,1,3,-3,-3,1757008473864107608
0,5.556375981,20250904135433864,None,-2,-10,-14,-2,-4,-12,-7,3,1757008473864302396
0,5.563488007,20250904135433871,None,-4,5,8,-1,7,7,0,-6,1757008473871582984
0,5.563709498,20250904135433872,None,-5,0,0,2,4,7,3,-5,1757008473871804237
0,5.578425646,20250904135433886,None,1,-2,-2,1,-11,-4,0,2,1757008473886577606
0,5.578576565,20250904135433887,None,1,-2,1,1,-3,-5,-12,0,1757008473886702775
0,5.585956335,20250904135433894,None,-2,13,2,-3,1,-1,7,-1,1757008473894016027
0,5.58603859,20250904135433894,None,-1,-6,-1,6,10,5,0,0,1757008473894126415
0,5.593466044,20250904135433901,None,-2,-4,0,4,-5,-3,-3,-3,1757008473901535272
0,5.593543053,20250904135433901,None,-2,-5,-4,-3,14,8,1,-1,1757008473901645898
0,5.608641863,20250904135433917,None,-4,-45,-13,-2,-2,3,-4,-4,1757008473916540622
0,5.6088249690000005,20250904135433917,None,3,53,6,5,4,2,-3,-2,1757008473916661024
0,5.615859509,20250904135433924,None,-3,-27,14,0,-5,-18,0,0,1757008473923960685
0,5.615927458,20250904135433924,None,-2,-3,-10,-2,23,14,8,1,1757008473924052953
0,5.623621702,20250904135433932,None,4,19,8,3,-9,-16,-12,4,1757008473931639432
0,5.623728037,20250904135433932,None,-2,-9,1,-3,-2,-5,1,-9,1757008473931802988
0,5.638643742,20250904135433947,None,2,-7,-4,1,3,5,5,-1,1757008473946593761
0,5.638777495,20250904135433947,None,1,11,5,-2,1,1,-1,1,1757008473946746826
0,5.646306277,20250904135433954,None,0,-2,0,-2,-1,0,0,-5,1757008473954268932
0,5.64642644,20250904135433954,None,-4,-2,-7,-4,7,5,1,-2,1757008473954424381
0,5.653650999,20250904135433962,None,-4,-9,-4,-2,-4,-2,0,4,1757008473961689233
0,5.653758765,20250904135433962,None,0,-6,-5,-4,-3,-8,-5,-6,1757008473961822509
0,5.668972016,20250904135433977,None,0,16,6,2,8,9,0,0,1757008473976813316
0,5.669159651,20250904135433977,None,-8,-38,-13,-1,-7,-6,-3,2,1757008473977002382
0,5.67637682,20250904135433984,None,2,33,3,-3,0,-4,-5,-1,1757008473984271287
0,5.676541806,20250904135433984,None,1,6,6,5,-19,1,0,1,1757008473984444141
0,5.683595658,20250904135433992,None,-7,-20,-15,-4,2,4,1,1,1757008473991664886
0,5.683809758,20250904135433992,None,-5,-7,0,0,-11,-2,1,-2,1757008473991791725
0,5.699019671,20250904135434007,None,3,8,2,-1,-4,1,-2,-2,1757008474006861925
0,5.699184656,20250904135434007,None,7,14,3,5,3,-3,-1,4,1757008474007050275
0,5.706637383,20250904135434015,None,-7,-21,-3,-4,-7,-4,-1,-4,1757008474014396190
0,5.706873417,20250904135434015,None,-1,-29,-8,-2,0,-1,-2,2,1757008474014575719
0,5.714054823,20250904135434022,None,2,43,-8,-8,-32,6,6,-1,1757008474021826267
0,5.714219809,20250904135434022,None,-1,-14,13,4,-8,-19,-9,2,1757008474021999120
0,5.729193926,20250904135434037,None,-2,-6,-5,-2,9,7,2,-4,1757008474036879062
0,5.729370594,20250904135434037,None,-4,-7,-5,-4,-6,-7,-1,1,1757008474037063837
0,5.736316443,20250904135434044,None,2,-2,0,0,0,2,-1,0,1757008474044256687
0,5.736474276,20250904135434044,None,2,2,-3,3,0,1,-3,-1,1757008474044420719
0,5.743536711,20250904135434051,None,-6,-33,-10,-11,1,1,-1,-4,1757008474051622152
0,5.743637324,20250904135434052,None,7,30,-2,2,5,0,3,4,1757008474051745891
0,5.75864172,20250904135434067,None,-1,-10,15,-2,-4,2,-1,-2,1757008474066677570
0,5.758743763,20250904135434067,None,0,0,-7,1,1,3,4,1,1757008474066799640
0,5.766145945,20250904135434074,None,-5,-20,-1,3,-6,-11,-11,-1,1757008474074162244
0,5.76625228,20250904135434074,None,-4,6,-8,-9,-8,-9,0,-2,1757008474074256181
0,5.773928404,20250904135434082,None,-5,-36,-7,2,28,11,-2,0,1757008474081839084
0,5.774063587,20250904135434082,None,3,34,8,-2,-6,-10,-2,-3,1757008474082004070
0,5.789392233,20250904135434097,None,7,8,7,7,8,9,2,6,1757008474097004890
0,5.789591551,20250904135434098,None,-3,-13,-12,1,-4,1,2,-1,1757008474097218751
0,5.796839476,20250904135434105,None,0,-6,1,0,-5,-6,-7,1,1757008474104592800
0,5.797014952,20250904135434105,None,0,0,3,-3,6,-4,-1,-3,1757008474104790925
0,5.80427599,20250904135434112,None,-1,0,-1,-5,-7,-3,-4,3,1757008474111975431
0,5.804460526,20250904135434112,None,-2,-4,-1,-3,4,4,3,-2,1757008474112174749
0,5.818648339,20250904135434127,None,-1,-2,-1,0,-1,-1,0,5,1757008474126673221
0,5.818736077,20250904135434127,None,-1,3,-4,2,1,17,5,-5,1757008474126809358
0,5.826171875,20250904135434134,None,-4,4,3,3,-1,-19,-8,-1,1757008474134172201
0,5.8262925150000004,20250904135434134,None,2,-2,-5,-5,-1,-11,-5,1,1757008474134319543
0,5.833662272,20250904135434142,None,-3,-27,2,6,-1,11,6,-3,1757008474141691923
0,5.833808899,20250904135434142,None,-4,29,-4,-10,-5,-1,-1,4,1757008474141831874
0,5.848962784,20250904135434157,None,5,22,17,5,4,1,-1,6,1757008474156717538
0,5.849216938,20250904135434157,None,-1,-19,-7,2,3,5,0,0,1757008474156873703
0,5.856271029,20250904135434164,None,-3,-26,-18,-5,-14,-4,-3,0,1757008474164170980
0,5.856480599,20250904135434164,None,-7,12,9,5,6,0,2,-5,1757008474164270877
0,5.863972187,20250904135434172,None,3,-4,-4,-6,2,-1,-10,0,1757008474171659231
0,5.864215613,20250904135434172,None,-1,-11,3,3,-16,3,6,0,1757008474171762943
0,5.879040957,20250904135434187,None,2,9,10,5,6,9,2,0,1757008474186703920
0,5.879268647,20250904135434187,None,2,5,0,-3,-6,-5,-1,1,1757008474186778545
0,5.8864655500000005,20250904135434194,None,1,-5,-4,-3,2,-1,-3,0,1757008474194178581
0,5.886704922,20250904135434195,None,-7,-11,-9,-4,-29,-10,0,-2,1757008474194252729
0,5.893828392,20250904135434202,None,0,-4,-5,2,6,-3,1,2,1757008474201682806
0,5.893991232,20250904135434202,None,-1,5,4,0,1,8,0,-4,1757008474201766967
0,5.908923865,20250904135434217,None,-6,-3,1,0,-1,-3,2,-3,1757008474216636896
0,5.909435034,20250904135434217,None,1,4,-1,0,2,7,-1,0,1757008474216747760
0,5.916210652,20250904135434224,None,-3,-5,-8,-4,1,-10,-6,0,1757008474224076747
0,5.9164001939999995,20250904135434224,None,-2,-1,2,-2,-2,0,-3,-3,1757008474224162578
0,5.923774004,20250904135434232,None,-4,-1,3,2,5,5,-1,-2,1757008474231601476
0,5.92398715,20250904135434232,None,-2,-3,-5,0,-3,-1,2,-2,1757008474231695890
0,5.938954354,20250904135434247,None,-2,-20,-5,-5,2,12,5,4,1757008474246707439
0,5.939150811,20250904135434247,None,3,13,5,5,4,-10,-6,-1,1757008474246828079
0,5.946350098,20250904135434254,None,-4,-3,-3,-1,3,6,2,-3,1757008474254153013
0,5.946527243,20250904135434254,None,4,8,-3,-1,-1,15,1,1,1757008474254250526
0,5.953858614,20250904135434262,None,-4,-10,-11,-3,4,-7,-5,-3,1757008474261654615
0,5.954058647,20250904135434262,None,-6,-21,-2,-5,-7,0,-3,-4,1757008474261749744
0,5.969254256,20250904135434277,None,2,31,1,1,4,0,0,-4,1757008474276912927
0,5.969445706,20250904135434277,None,6,21,22,2,4,6,-1,1,1757008474277112483
0,5.976313591,20250904135434284,None,5,-3,-3,-2,0,-4,4,6,1757008474284133911
0,5.976504803,20250904135434284,None,-1,-7,-7,-1,1,7,1,1,1757008474284255027
0,5.9920418269999995,20250904135434300,None,-3,-8,-6,-1,12,-7,-7,0,1757008474299650192
0,5.992215395,20250904135434300,None,-3,-8,-8,-12,-21,-10,-3,-4,1757008474299842357
0,5.999185086,20250904135434307,None,2,7,7,3,7,-5,-3,-5,1757008474306767702
0,5.999403954,20250904135434307,None,2,5,4,0,-2,0,3,1,1757008474306929588
0,6.006689072,20250904135434315,None,-1,-4,-7,0,-3,0,0,0,1757008474314416408
0,6.007160664,20250904135434315,None,-3,-8,-5,2,5,3,4,-1,1757008474314598083
0,6.014078141,20250904135434322,None,5,10,1,2,-4,-6,-5,1,1757008474321842670
0,6.014277458,20250904135434322,None,-4,-1,1,-6,1,0,0,-2,1757008474322015523
0,6.029262066,20250904135434337,None,2,24,5,-2,1,5,1,4,1757008474336880922
0,6.029479504,20250904135434337,None,-4,-14,1,3,0,2,-3,0,1757008474337064266
0,6.036111117,20250904135434344,None,0,5,-14,-10,-2,4,-4,-1,1757008474344034671
0,6.036290884,20250904135434344,None,-2,9,12,2,2,-5,1,-3,1757008474344133853
0,6.043876648,20250904135434352,None,3,1,-1,0,0,2,3,2,1757008474351597070
0,6.044540167,20250904135434353,None,-1,-1,0,-2,-8,-2,-3,-1,1757008474351700782
0,6.059141636,20250904135434367,None,0,0,-7,-4,6,-6,-3,-2,1757008474366692304
0,6.059561253,20250904135434368,None,0,-2,-3,-6,-11,-5,-2,2,1757008474366823196
0,6.066461087,20250904135434374,None,-3,-6,1,-2,-4,-6,-9,-7,1757008474374184608
0,6.066712618,20250904135434375,None,-9,-67,-25,-3,-3,1,-2,-1,1757008474374263763
0,6.073857546,20250904135434382,None,7,82,17,3,-2,-2,-2,-1,1757008474381636619
0,6.074470759,20250904135434382,None,4,-9,9,4,1,5,6,8,1757008474381738901
0,6.089122534,20250904135434397,None,-5,-5,-3,-1,3,5,2,-1,1757008474396675348
0,6.089528323,20250904135434397,None,-2,6,1,-4,-27,-4,-2,-1,1757008474396806955
0,6.096385241,20250904135434404,None,-7,-6,-4,-2,-2,-11,-6,-5,1757008474404147624
0,6.096629381,20250904135434405,None,1,0,-2,1,1,0,2,0,1757008474404254913
0,6.111516238,20250904135434419,None,-2,-14,-8,0,-5,-21,-7,-2,1757008474419251918
0,6.111752987,20250904135434420,None,-1,-39,-9,-18,-5,0,-3,-3,1757008474419395923
0,6.118654728,20250904135434427,None,0,36,2,4,-3,-7,0,1,1757008474426592588
0,6.118841648,20250904135434427,None,1,-14,3,0,0,-1,1,-3,1757008474426682949
0,6.126337767,20250904135434434,None,-6,-17,-12,-3,-5,-2,1,-2,1757008474434148550
0,6.126551152,20250904135434435,None,0,4,4,1,-3,0,4,0,1757008474434249877
0,6.14136982,20250904135434449,None,5,17,2,8,18,-1,-7,-2,1757008474449148178
0,6.141634703,20250904135434450,None,0,-2,7,-4,-8,1,-5,-1,1757008474449251651
0,6.149084568,20250904135434457,None,-3,-3,3,-1,-6,-11,-2,-2,1757008474456833839
0,6.149279595,20250904135434457,None,-5,-8,-6,5,6,8,4,-2,1757008474457020044
0,6.156338215,20250904135434464,None,-1,-22,-7,0,-1,6,3,-2,1757008474464141845
0,6.156554461,20250904135434465,None,4,20,-3,-5,-18,-39,-15,-1,1757008474464250326
0,6.171594143,20250904135434480,None,2,-22,-1,1,-1,1,2,3,1757008474479375123
0,6.171816349,20250904135434480,None,1,23,1,-1,-4,4,2,-3,1757008474479550838
0,6.178830624,20250904135434487,None,4,34,21,6,2,6,-3,5,1757008474486639499
0,6.179027796,20250904135434487,None,-5,-22,-10,-5,5,2,2,1,1757008474486741065
0,6.186342478,20250904135434494,None,-5,-16,-16,-6,-11,5,0,-5,1757008474494160652
0,6.186556578,20250904135434495,None,-3,-11,0,-1,-6,-4,-3,0,1757008474494253396
0,6.201573611,20250904135434510,None,2,15,6,1,-6,1,4,-2,1757008474509334325
0,6.20189476,20250904135434510,None,-4,-5,-3,1,2,6,5,0,1757008474509512186
0,6.208614826,20250904135434517,None,0,-5,-1,2,32,-5,-13,-4,1757008474516561269
0,6.208758831,20250904135434517,None,1,5,6,-2,-7,-8,-6,-7,1757008474516690015
0,6.21637702,20250904135434524,None,4,2,2,-6,5,2,5,6,1757008474524134397
0,6.216590405,20250904135434525,None,-1,2,1,-1,-2,2,1,-1,1757008474524255037
0,6.231457234,20250904135434539,None,-1,-10,-2,0,0,3,0,-1,1757008474539267778
0,6.231668473,20250904135434540,None,1,3,-9,1,2,-1,-4,2,1757008474539424180
0,6.238846779,20250904135434547,None,0,1,15,4,7,10,1,0,1757008474546623706
0,6.239415646,20250904135434547,None,-4,-13,-3,-3,0,-9,1,-2,1757008474546734571
0,6.246353865,20250904135434554,None,1,10,-1,-1,1,-1,-3,-2,1757008474554138898
0,6.246572256,20250904135434555,None,1,-3,-3,-3,-1,1,0,-1,1757008474554249763
0,6.26142335,20250904135434569,None,0,-45,-9,-3,1,2,1,1,1757008474569198131
0,6.261620045,20250904135434570,None,2,60,6,0,7,8,-1,-6,1757008474569369792
0,6.26882267,20250904135434577,None,0,-9,8,2,-8,-15,-1,1,1757008474576613426
0,6.269089222,20250904135434577,None,-2,-3,-1,0,3,2,3,0,1757008474576728820
0,6.276431322,20250904135434584,None,-3,-21,1,-3,-11,-11,3,2,1757008474584169387
0,6.27664423,20250904135434585,None,5,32,-5,-2,-3,-2,-11,-3,1757008474584330558
0,6.291346073,20250904135434599,None,-5,20,-11,-2,-2,3,2,2,1757008474599161624
0,6.291558743,20250904135434600,None,-3,-7,20,1,0,4,2,-6,1757008474599247932
0,6.298764468,20250904135434607,None,-4,-4,-1,-3,-17,-4,-5,-2,1757008474606615304
0,6.299161434,20250904135434607,None,0,-4,-5,4,5,-3,-4,-5,1757008474606707096
0,6.306428194,20250904135434614,None,0,-6,-12,-7,-5,-2,4,0,1757008474614176034
0,6.306652308,20250904135434615,None,1,0,8,-1,-2,2,-1,-1,1757008474614319562
0,6.321368218,20250904135434629,None,-1,-5,-13,1,11,-8,-2,2,1757008474629145622
0,6.321582556,20250904135434630,None,0,-4,8,-1,2,-4,-3,-1,1757008474629255533
0,6.32882762,20250904135434637,None,-1,-9,-2,2,-3,-2,0,0,1757008474636623859
0,6.329045296,20250904135434637,None,5,23,5,-11,-4,2,4,0,1757008474636724472
0,6.336268902,20250904135434644,None,-1,-8,-7,7,18,12,-1,1,1757008474644110679
0,6.336479903,20250904135434644,None,-7,13,-5,-4,-3,-4,1,-6,1757008474644206047
0,6.351398945,20250904135434659,None,7,32,4,-5,3,9,4,4,1757008474659212827
0,6.3516047,20250904135434660,None,-4,-11,1,2,-4,-35,-9,-7,1757008474659406900
0,6.367598295,20250904135434676,None,-4,-12,-9,-1,-10,-15,-3,1,1757008474675138711
0,6.367884636,20250904135434676,None,-5,-10,-3,-2,-5,1,0,-3,1757008474675392866
0,6.368116617,20250904135434676,None,-4,36,1,-6,2,0,6,-1,1757008474676176309
0,6.368424893,20250904135434676,None,6,1,3,2,-2,1,-4,4,1757008474676456451
0,6.381421566,20250904135434689,None,-1,11,13,10,1,-3,-2,-3,1757008474689137697
0,6.381729365,20250904135434690,None,-1,-4,-2,-3,1,1,3,1,1757008474689253568
0,6.388719559,20250904135434697,None,-5,-14,-7,-2,-2,-1,1,1,1757008474696581363
0,6.388936997,20250904135434697,None,-2,-2,3,3,0,3,-1,-2,1757008474696688890
0,6.396116734,20250904135434704,None,1,-1,-3,0,-3,-10,-3,2,1757008474704143285
0,6.396283627,20250904135434704,None,-2,2,3,-7,2,-3,5,-2,1757008474704255819
0,6.411168099,20250904135434719,None,1,-26,-13,-2,14,3,-10,-4,1757008474719252824
0,6.411307335,20250904135434719,None,2,27,5,1,-7,-1,-3,-2,1757008474719439268
0,6.419019223,20250904135434727,None,-1,8,1,-1,5,5,3,3,1757008474726904392
0,6.419102431,20250904135434727,None,2,-8,2,0,-1,-4,-1,0,1757008474727106571
0,6.426291466,20250904135434734,None,1,-11,1,1,6,1,1,-1,1757008474734359502
0,6.426365853,20250904135434734,None,-2,28,0,-6,-6,-6,-4,-3,1757008474734555482
0,6.4415178300000004,20250904135434749,None,2,6,7,-3,6,9,4,-2,1757008474749387979
0,6.441612721,20250904135434750,None,2,28,6,9,3,4,-2,2,1757008474749581098
0,6.448773146,20250904135434757,None,-2,-6,-6,-4,-6,-14,-3,-3,1757008474756853580
0,6.448899746,20250904135434757,None,-1,-19,-1,2,-5,-1,-1,0,1757008474757094621
0,6.456199408,20250904135434764,None,1,6,-1,-5,-1,7,-1,-3,1757008474764331340
0,6.456274748,20250904135434764,None,-3,-8,-7,-1,3,-6,-3,-5,1757008474764503002
0,6.472316504,20250904135434780,None,-1,-3,3,3,-3,-6,-4,-2,1757008474779695987
0,6.472518683,20250904135434780,None,4,18,10,1,4,3,-4,-5,1757008474779913663
0,6.479202748,20250904135434787,None,-2,0,-4,0,-6,-1,0,2,1757008474786882877
0,6.4793884760000005,20250904135434787,None,-6,-7,-14,-3,1,-2,-3,-2,1757008474787071228
0,6.486729145,20250904135434795,None,1,0,5,1,-3,-1,-3,3,1757008474794450998
0,6.486968756,20250904135434795,None,-1,2,1,3,2,7,-1,0,1757008474794640541
0,6.50166893,20250904135434810,None,-6,-5,-3,-5,-4,-3,4,1,1757008474809408426
0,6.501906157,20250904135434810,None,-3,-25,-23,-3,0,2,2,1,1757008474809604644
0,6.509115458,20250904135434817,None,0,26,20,-1,-2,0,3,-3,1757008474816839694
0,6.509296179,20250904135434817,None,-1,-30,1,-3,-4,-1,-5,0,1757008474817021608
0,6.516755343,20250904135434825,None,4,26,2,6,16,5,-1,1,1757008474824423789
0,6.517015219,20250904135434825,None,1,-8,1,2,-19,3,4,5,1757008474824610233
0,6.531932831,20250904135434840,None,0,30,12,-3,-2,-3,-6,-3,1757008474839500904
0,6.532142163,20250904135434840,None,-1,-13,-8,-1,2,2,2,1,1757008474839711666
0,6.538728476,20250904135434847,None,-7,-22,-13,1,0,-4,-3,-4,1757008474846682310
0,6.538858652,20250904135434847,None,0,2,0,-18,-7,5,5,-3,1757008474846812009
0,6.546575785,20250904135434855,None,1,4,10,2,0,-7,0,0,1757008474854320287
0,6.546721936,20250904135434855,None,1,0,0,3,4,2,-3,1,1757008474854496717
0,6.561703444,20250904135434870,None,0,-3,-9,-1,-7,-7,-8,0,1757008474869371652
0,6.561976672,20250904135434870,None,2,3,8,2,-3,-4,1,-5,1757008474869548559
0,6.569109679,20250904135434877,None,-2,-2,-3,0,-2,6,1,4,1757008474876845121
0,6.569312573,20250904135434877,None,-4,-1,-5,-2,-3,-2,3,0,1757008474877034187
0,6.576600313,20250904135434885,None,3,-2,1,0,-3,-11,-5,-6,1757008474884357452
0,6.576825381,20250904135434885,None,2,3,-7,-1,1,-7,-3,-3,1757008474884531974
0,6.592094183,20250904135434900,None,-1,-1,15,2,-1,-1,0,-2,1757008474899606227
0,6.592296601,20250904135434900,None,6,10,-4,-1,1,1,-1,5,1757008474899823427
0,6.599298239,20250904135434907,None,-5,-7,3,-2,7,2,-1,-2,1757008474906881332
0,6.59948206,20250904135434907,None,-1,-54,-17,-6,-8,-4,-2,-4,1757008474907085657
0,6.606504917,20250904135434914,None,3,43,7,0,10,-4,-2,-2,1757008474914271831
0,6.606683016,20250904135434915,None,1,-15,-8,-1,6,5,0,-2,1757008474914433956
0,6.621423245,20250904135434929,None,-5,6,15,-2,-18,1,1,-3,1757008474929182291
0,6.621600151,20250904135434930,None,4,9,1,3,8,3,-3,3,1757008474929354667
0,6.6288659580000004,20250904135434937,None,0,-11,-10,-3,-11,-12,0,0,1757008474936604976
0,6.629052401,20250904135434937,None,-4,-8,1,-5,0,6,5,0,1757008474936720371
0,6.636353731,20250904135434944,None,0,-10,-8,-1,-1,-2,-8,-2,1757008474944165468
0,6.63653636,20250904135434944,None,-6,-55,-8,4,-1,-9,1,-6,1757008474944315910
0,6.651443482,20250904135434959,None,-1,68,2,0,-2,10,6,-1,1757008474959167003
0,6.651640654,20250904135434960,None,7,19,10,-8,-6,-11,-5,-2,1757008474959327697
0,6.658745766,20250904135434967,None,3,-15,-3,2,4,3,6,10,1757008474966521263
0,6.658984661,20250904135434967,None,-6,-11,-13,-1,-2,2,1,-3,1757008474966624975
0,6.666348696,20250904135434974,None,1,-6,8,5,3,3,0,-4,1757008474974181413
0,6.666551352,20250904135434975,None,-1,0,0,0,6,3,2,-3,1757008474974324703
0,6.681440831,20250904135434989,None,-1,-5,-2,0,-7,-1,-6,-4,1757008474989161491
0,6.681633473,20250904135434990,None,-6,-44,-15,-6,-1,-6,6,-1,1757008474989272832
0,6.688725949,20250904135434997,None,3,41,18,3,4,0,-6,-4,1757008474996610641
0,6.688924313,20250904135434997,None,-1,-9,2,-7,2,6,3,-2,1757008474996723890
0,6.696050883,20250904135435004,None,5,2,-1,0,-4,-3,-4,5,1757008475004097461
0,6.696131945,20250904135435004,None,-4,-10,-11,-5,1,-1,-3,-8,1757008475004199028
0,6.711220503,20250904135435019,None,2,5,5,-3,-18,3,1,-3,1757008475019196510
0,6.711334229,20250904135435019,None,2,2,0,3,10,3,1,2,1757008475019337415
0,6.718565464,20250904135435027,None,-5,-4,4,2,8,-2,0,-4,1757008475026603460
0,6.718655587,20250904135435027,None,-1,0,-10,-2,13,2,-6,-4,1757008475026716947
0,6.726128817,20250904135435034,None,-2,1,7,0,8,2,5,0,1757008475034171819
0,6.726217985,20250904135435034,None,-2,-2,0,1,1,0,-6,-5,1757008475034249305
0,6.7411866190000005,20250904135435049,None,-3,-35,-16,-3,2,0,4,-3,1757008475049193382
0,6.741259337,20250904135435049,None,2,43,19,1,0,7,5,3,1757008475049357891
0,6.748846293,20250904135435057,None,-3,-22,-9,-1,7,4,-5,0,1757008475056595563
0,6.749027252,20250904135435057,None,-4,-34,-8,0,-5,-9,-4,-4,1757008475056704759
0,6.75633502,20250904135435064,None,15,52,15,7,8,8,3,9,1757008475064123630
0,6.756513596,20250904135435064,None,-7,-12,-3,4,-8,-1,1,0,1757008475064238309
0,6.771341324,20250904135435079,None,-5,-23,-14,-19,-7,-3,-4,-3,1757008475079158544
0,6.771505833,20250904135435079,None,-1,7,2,4,3,9,2,-6,1757008475079254865
0,6.77886653,20250904135435087,None,1,-34,-11,3,-3,3,2,-5,1757008475086645364
0,6.779069186,20250904135435087,None,2,26,-1,-6,2,-5,-2,2,1757008475086742162
0,6.786418677,20250904135435094,None,-3,-5,10,-2,-6,-6,-7,-4,1757008475094169378
0,6.786602021,20250904135435095,None,2,-4,-1,0,1,3,0,-3,1757008475094252586
0,6.801322699,20250904135435109,None,-4,-7,-9,-4,-7,-6,-5,-4,1757008475109112262
0,6.801512003,20250904135435109,None,7,21,4,1,4,3,3,1,1757008475109221458
0,6.808754444,20250904135435117,None,-1,-7,-1,2,-5,1,1,0,1757008475116572141
0,6.808945895,20250904135435117,None,0,-6,1,-7,-10,-5,-2,-3,1757008475116665124
0,6.816269636,20250904135435124,None,-3,-10,0,0,12,3,-4,-5,1757008475124088764
0,6.816432953,20250904135435124,None,0,0,-9,-3,-3,-2,-2,2,1757008475124197483
0,6.831548691,20250904135435140,None,-3,-4,1,-2,2,1,-2,-7,1757008475139137029
0,6.831743956,20250904135435140,None,5,3,-4,0,-3,6,-2,2,1757008475139331340
0,6.838917971,20250904135435147,None,-6,-8,-1,-1,-7,-12,-2,-7,1757008475146681547
0,6.839119673,20250904135435147,None,-1,-7,-17,-9,17,0,-1,-1,1757008475146801471
0,6.846331597,20250904135435154,None,1,23,23,-1,-4,1,-1,-1,1757008475154135227
0,6.846601248,20250904135435155,None,3,17,-2,4,8,12,1,1,1757008475154255867
0,6.861370325,20250904135435169,None,-8,-25,-8,-2,-6,-11,-4,-3,1757008475169104337
0,6.86152649,20250904135435169,None,5,10,10,1,0,4,2,2,1757008475169205427
0,6.868683577,20250904135435177,None,-4,-44,-15,-1,7,-5,-8,0,1757008475176585912
0,6.8688557150000005,20250904135435177,None,-1,38,-2,-2,-1,4,-2,-6,1757008475176687717
0,6.87622881,20250904135435184,None,7,-4,12,1,1,-6,3,5,1757008475184060573
0,6.876414776,20250904135435184,None,-3,-5,-1,4,-2,2,1,-4,1757008475184163570
0,6.891332388,20250904135435199,None,-5,-15,-8,-13,-5,-3,-2,2,1757008475199139595
0,6.891507387,20250904135435199,None,-4,-19,-7,-5,-2,-3,6,2,1757008475199249744
0,6.898605824,20250904135435207,None,1,18,2,1,3,-4,-4,-2,1757008475206607580
0,6.898810625,20250904135435207,None,1,-3,2,6,7,9,7,-2,1757008475206726074
0,6.906404019,20250904135435214,None,-1,-8,-6,-4,-6,-10,-8,-4,1757008475214365959
0,6.9065711499999995,20250904135435215,None,0,-3,1,0,0,5,2,5,1757008475214541196
0,6.921185255,20250904135435229,None,4,4,-1,-5,-1,-1,2,-1,1757008475229145526
0,6.921362639,20250904135435229,None,-2,-8,-1,0,12,6,0,-2,1757008475229275226
0,6.928336621,20250904135435236,None,-2,-2,1,0,-8,-4,-2,-1,1757008475236595392
0,6.928662539,20250904135435237,None,0,5,1,2,19,3,1,-3,1757008475236897706
0,6.9361341,20250904135435244,None,-1,-16,-3,0,-7,-3,7,1,1757008475244343757
0,6.936221838,20250904135435244,None,-3,25,3,-3,-2,0,0,5,1757008475244535446
0,6.951160431,20250904135435259,None,4,15,-5,-2,1,-3,-4,-4,1757008475259364128
0,6.951247216,20250904135435259,None,-4,-12,6,4,0,5,3,-4,1757008475259546041
0,6.958596945,20250904135435267,None,8,36,13,-2,0,4,1,5,1757008475266820669
0,6.958661557,20250904135435267,None,1,-3,-3,-2,-3,-6,-7,1,1757008475266997098
0,6.96638465,20250904135435274,None,-2,-9,-9,0,2,-9,-6,-4,1757008475274548768
0,6.966464758,20250904135435274,None,0,-18,-14,-2,-5,1,-3,-1,1757008475274793624
0,6.981271744,20250904135435289,None,3,6,7,-1,-1,7,1,-1,1757008475289352893
0,6.981755972,20250904135435290,None,0,-3,-6,-4,1,-1,-2,1,1757008475289585351
0,6.988856077,20250904135435297,None,-4,-14,4,3,-4,-3,2,-4,1757008475296643257
0,6.989060641,20250904135435297,None,1,11,2,-5,1,2,3,1,1757008475296776294
0,6.996240139,20250904135435304,None,1,-5,-1,-5,6,5,8,1,1757008475304077625
0,6.9964070320000005,20250904135435304,None,5,0,-2,3,-19,-9,-8,-1,1757008475304174900
0,7.011338234,20250904135435319,None,-4,-4,-8,-12,-1,-3,-2,2,1757008475319164276
0,7.011517287,20250904135435319,None,-4,-5,-2,-1,1,4,1,1,1757008475319246530
0,7.018816948,20250904135435327,None,3,-6,2,2,-7,-3,-4,-5,1757008475326672077
0,7.018950939,20250904135435327,None,5,38,-1,5,7,3,0,-5,1757008475326790809
0,7.026183844,20250904135435334,None,-6,-8,4,-1,2,1,-3,2,1757008475334043741
0,7.026314974,20250904135435334,None,2,7,3,5,0,0,6,1,1757008475334131717
0,7.041410446,20250904135435349,None,-4,-9,0,-1,-10,-15,-1,-3,1757008475349160671
0,7.041608334,20250904135435350,None,-2,-74,-22,0,-5,-19,-4,0,1757008475349258422
0,7.048814059,20250904135435357,None,-4,72,16,-4,0,5,3,-6,1757008475356592893
0,7.049284697,20250904135435357,None,1,-19,-6,6,11,8,-4,-3,1757008475356691598
0,7.063662291,20250904135435372,None,3,0,8,0,-33,-16,-4,5,1757008475371627092
0,7.063848019,20250904135435372,None,3,2,-2,-3,-9,-1,4,1,1757008475371733188
0,7.071162939,20250904135435379,None,0,3,4,-3,3,2,1,-3,1757008475379189014
0,7.071341515,20250904135435379,None,-2,-5,-7,-4,0,21,5,0,1757008475379333972
0,7.078565121,20250904135435387,None,-8,-5,-4,-1,-4,-17,-7,-8,1757008475386655330
0,7.078667879,20250904135435387,None,-3,-19,-7,-4,3,-2,-1,-2,1757008475386775493
0,7.093635083,20250904135435402,None,-2,4,-12,-3,-7,0,-2,-2,1757008475401640653
0,7.093755245,20250904135435402,None,3,5,26,5,11,2,2,1,1757008475401777982
0,7.101133824,20250904135435409,None,8,25,5,3,4,0,-3,6,1757008475409189939
0,7.101263047,20250904135435409,None,-1,-9,-5,-5,0,4,-1,-1,1757008475409375667
0,7.108840466,20250904135435417,None,-4,-11,-9,-4,-1,-2,4,-1,1757008475416821002
0,7.10893178,20250904135435417,None,-4,-4,0,0,-3,-6,1,-2,1757008475417002916
0,7.123860836,20250904135435432,None,1,-7,-2,-11,3,1,-8,-7,1757008475431846618
0,7.123951435,20250904135435432,None,-2,-2,1,1,-15,-6,-6,-3,1757008475432025909
0,7.131614209,20250904135435440,None,-4,-24,-2,0,-3,-4,-2,-5,1757008475439401626
0,7.131742239,20250904135435440,None,2,14,-16,-4,-5,1,2,-2,1757008475439726829
0,7.1388015750000005,20250904135435447,None,1,13,14,2,1,0,2,5,1757008475446784257
0,7.138877392,20250904135435447,None,-7,-16,0,-2,-2,-1,-1,-5,1757008475446968555
0,7.154261351,20250904135435462,None,-2,-3,-2,1,0,5,0,-5,1757008475461858272
0,7.154465437,20250904135435462,None,2,3,0,-1,3,-3,-3,3,1757008475462058782
0,7.161684037,20250904135435470,None,-6,-38,-15,-2,15,1,2,-5,1757008475469344615
0,7.161904574,20250904135435470,None,0,40,11,4,0,-2,-2,-3,1757008475469539165
0,7.169065714,20250904135435477,None,0,-18,-1,3,5,7,2,-3,1757008475476791858
0,7.16924119,20250904135435477,None,-6,-21,-15,-6,-3,0,2,-3,1757008475476971626
0,7.184079409,20250904135435492,None,-1,8,8,-1,-4,0,0,0,1757008475491815567
0,7.184254647,20250904135435492,None,-4,-6,2,0,4,6,0,0,1757008475491997241
0,7.191753865,20250904135435500,None,-6,5,-4,1,-4,-12,-3,-6,1757008475499402523
0,7.191988945,20250904135435500,None,1,-6,-9,-11,0,-4,-4,0,1757008475499591588
0,7.199211836,20250904135435507,None,-5,-8,-1,2,-6,-3,3,-4,1757008475506837844
0,7.199385643,20250904135435507,None,1,-1,-3,2,7,0,-2,-2,1757008475507028579
0,7.214524508,20250904135435523,None,-3,5,6,-5,-12,3,-1,2,1757008475521908044
0,7.214846611,20250904135435523,None,4,43,6,3,2,2,4,-2,1757008475522109031
0,7.221980095,20250904135435530,None,-1,-10,4,-4,-8,-7,-1,2,1757008475529505968
0,7.222183943,20250904135435530,None,-5,-12,-7,1,19,4,-8,-2,1757008475529707670
0,7.229262114,20250904135435537,None,-3,-8,-5,-3,-1,2,0,1,1757008475536812305
0,7.229501248,20250904135435537,None,2,-5,1,1,-4,-6,0,1,1757008475537011623
0,7.244824171,20250904135435553,None,1,1,3,-4,4,-8,0,-2,1757008475551998138
0,7.245043278,20250904135435553,None,0,-6,-5,-7,-25,-13,-9,-3,1757008475552272081
0,7.251816988,20250904135435560,None,1,2,3,-3,-23,-6,1,-2,1757008475559434652
0,7.252007962,20250904135435560,None,0,-3,2,4,10,3,0,2,1757008475559628963
0,7.259433508,20250904135435567,None,0,-36,-14,-2,1,6,4,-3,1757008475567033290
0,7.259634733,20250904135435568,None,-6,54,12,-2,-2,-7,-7,-3,1757008475567272663
0,7.273990155,20250904135435582,None,2,-10,4,-2,5,-1,-1,2,1757008475581759691
0,7.2741789820000005,20250904135435582,None,0,-2,-3,3,2,2,4,-6,1757008475581947326
0,7.2814397809999996,20250904135435589,None,-9,-9,-4,0,8,6,1,-4,1757008475589140892
0,7.281651497,20250904135435590,None,6,-8,-9,-7,-6,-16,-7,1,1757008475589278936
0,7.288869143,20250904135435597,None,0,11,-3,-4,1,-2,-1,2,1757008475596610307
0,7.289076567,20250904135435597,None,-5,-12,0,-4,-3,10,3,3,1757008475596729993
0,7.303949833,20250904135435612,None,0,5,2,1,-8,-14,-4,-5,1757008475611649751
0,7.304152727,20250904135435612,None,-1,-1,4,2,10,9,1,-2,1757008475611784696
0,7.311208725,20250904135435619,None,-1,-44,-16,-1,-10,-7,0,2,1757008475619069099
0,7.311377764,20250904135435619,None,-5,36,6,-2,-1,5,2,-5,1757008475619163990
0,7.31883955,20250904135435627,None,3,0,9,4,-8,2,4,4,1757008475626603364
0,7.319052458,20250904135435627,None,-9,-14,-8,0,7,-2,-4,2,1757008475626710891
0,7.333756447,20250904135435642,None,-1,-18,-14,-3,-4,-3,-2,-1,1757008475641566038
0,7.334318161,20250904135435642,None,3,15,7,2,-1,7,1,1,1757008475641667842
0,7.341135502,20250904135435649,None,5,18,8,4,-7,-8,-3,-3,1757008475649070501
0,7.341290236,20250904135435649,None,-4,-7,0,4,-3,-4,-4,3,1757008475649168014
0,7.348591805,20250904135435657,None,-5,-11,-4,-21,-10,-3,-2,-4,1757008475656627893
0,7.348702908,20250904135435657,None,0,-3,-1,4,0,3,-1,-1,1757008475656756162
0,7.363854409,20250904135435672,None,1,3,2,1,-6,-7,-2,1,1757008475671621799
0,7.364037991,20250904135435672,None,0,0,-3,3,1,1,1,-1,1757008475671742439
0,7.371194601,20250904135435679,None,-1,0,6,-4,-2,-1,-5,-5,1757008475679190158
0,7.371313572,20250904135435679,None,0,0,-4,-2,1,-1,2,1,1757008475679361104
0,7.378512383,20250904135435686,None,-6,-9,-6,3,6,5,1,-3,1757008475686604976
0,7.378602982,20250904135435687,None,-2,26,2,-8,-5,-4,-4,-2,1757008475686724901
0,7.393528223,20250904135435701,None,-1,2,2,-4,-1,-4,-1,-3,1757008475701586961
0,7.393633843,20250904135435702,None,1,12,9,2,1,3,3,-3,1757008475701671838
0,7.401251793,20250904135435709,None,-3,-10,-9,3,-7,-4,4,8,1757008475709321975
0,7.401387453,20250904135435709,None,-1,16,15,-2,1,12,-1,-9,1757008475709495067
0,7.4089849,20250904135435717,None,-4,-21,-7,-3,0,-12,-10,-1,1757008475716949939
0,7.409090281,20250904135435717,None,-1,0,-3,-2,-15,-12,-4,0,1757008475717144250
0,7.423989058,20250904135435732,None,-1,4,3,-8,9,-4,-1,-5,1757008475731947660
0,7.42407322,20250904135435732,None,0,-7,-10,-3,-4,8,5,2,1757008475732138395
0,7.431931973,20250904135435740,None,-8,-42,-11,-5,-1,-6,-6,-1,1757008475739778757
0,7.432115555,20250904135435740,None,2,45,19,-1,1,1,0,1,1757008475740021705
0,7.439003229,20250904135435747,None,4,-1,7,6,3,-4,-3,4,1757008475746922016
0,7.439165831,20250904135435747,None,-4,-12,-5,-1,-2,2,-1,1,1757008475747119903
0,7.454326868,20250904135435762,None,0,-10,-1,5,-20,2,3,1,1757008475761992454
0,7.454515934,20250904135435762,None,-2,0,2,-3,0,1,-3,-5,1757008475762184619
0,7.4616835120000005,20250904135435770,None,-1,1,-2,-5,-11,-4,-2,5,1757008475769452571
0,7.461874485,20250904135435770,None,0,-3,1,-5,7,0,2,-2,1757008475769625425
0,7.469179869,20250904135435777,None,-6,-68,-22,-3,-19,-2,-1,-5,1757008475776918411
0,7.469341755,20250904135435777,None,4,76,18,2,-4,5,1,-3,1757008475777091026
0,7.484473706,20250904135435792,None,3,-13,7,6,0,-11,-10,4,1757008475792056798
0,7.484669447,20250904135435793,None,-8,-45,-16,-3,-1,-8,2,-4,1757008475792279958
0,7.49218154,20250904135435800,None,-5,20,-5,-4,-8,-1,-7,-3,1757008475799659013
0,7.492420674,20250904135435800,None,1,-8,16,2,-5,1,0,2,1757008475799847841
0,7.499343157,20250904135435807,None,0,9,-4,1,3,1,1,2,1757008475806972265
0,7.499507666,20250904135435807,None,-3,0,-5,-4,-12,-8,-4,-1,1757008475807168006
0,7.51422,20250904135435822,None,-2,-7,-2,-3,0,1,-2,-3,1757008475821981191
0,7.514415503,20250904135435822,None,-1,0,-5,-1,-1,12,16,5,1757008475822211027
0,7.521555424,20250904135435830,None,-1,2,5,-1,0,-16,-12,5,1757008475829463243
0,7.52174592,20250904135435830,None,-4,-1,2,2,5,8,-4,-8,1757008475829646587
0,7.5289700029999995,20250904135435837,None,-1,-5,-7,-3,-5,-1,2,-3,1757008475836905241
0,7.529230833,20250904135435837,None,3,-4,-1,-3,-3,-8,-3,-4,1757008475837087154
0,7.544148207,20250904135435852,None,5,10,9,5,4,3,-1,0,1757008475851970911
0,7.544353009,20250904135435852,None,-8,-11,-13,-7,-3,1,0,-6,1757008475852183818
0,7.551689387,20250904135435860,None,1,9,8,2,8,1,0,7,1757008475859742403
0,7.551931858,20250904135435860,None,0,4,0,-6,-8,-6,-6,-3,1757008475860113859
0,7.559027195,20250904135435867,None,-3,-8,-10,-1,-1,0,0,-2,1757008475866950511
0,7.55920291,20250904135435867,None,0,2,7,3,7,4,1,0,1757008475867139577
0,7.574028492,20250904135435882,None,-2,-2,-5,4,2,-3,0,-3,1757008475881934881
0,7.574202776,20250904135435882,None,4,13,4,-14,-7,1,5,8,1757008475882122516
0,7.581519127,20250904135435889,None,-5,-29,-11,2,3,0,-1,-7,1757008475889467477
0,7.581694603,20250904135435890,None,1,25,1,-7,-4,0,-5,-1,1757008475889654159
0,7.58894825,20250904135435897,None,3,17,10,5,0,-4,-1,2,1757008475896894216
0,7.5891113279999995,20250904135435897,None,-1,-13,3,7,2,-1,1,0,1757008475897074222
0,7.604047776,20250904135435912,None,-8,-6,2,-1,1,-1,4,-1,1757008475911937952
0,7.604222775,20250904135435912,None,0,-6,-5,-7,-8,-7,-6,-3,1757008475912124395
0,7.611378432,20250904135435919,None,0,-8,-4,0,-2,4,-2,-2,1757008475919474601
0,7.611557007,20250904135435920,None,-2,-1,-5,-1,-2,-5,-2,0,1757008475919808149
0,7.61882639,20250904135435927,None,0,0,3,-1,11,6,3,-1,1757008475926858186
0,7.618963003,20250904135435927,None,-1,1,7,0,-12,-9,-13,0,1757008475926997184
0,7.634094477,20250904135435942,None,1,-2,-10,2,3,6,9,3,1757008475941967010
0,7.634288311,20250904135435942,None,-2,-3,5,-2,3,10,3,-2,1757008475942154169
0,7.64158082,20250904135435950,None,3,0,8,0,-5,-10,-3,5,1757008475949481010
0,7.641776562,20250904135435950,None,1,4,-1,3,1,7,3,0,1757008475949676513
0,7.648958445,20250904135435957,None,-2,-3,-13,2,0,-16,-9,0,1757008475956887483
0,7.649173975,20250904135435957,None,-5,-5,3,-4,12,2,3,-4,1757008475957091093
0,7.664248467,20250904135435972,None,0,-12,0,-3,-9,3,0,0,1757008475972020626
0,7.664484978,20250904135435972,None,2,14,2,-2,-2,0,2,1,1757008475972207307
