gt,time_elapsed,current_time,current_task,motor_position,futek,emg0,emg1,emg2,emg3,emg4,emg5,emg6,emg7,emg_timer_stamp
0,0.043657064,20250904141600246,None,10,229.16510009765625,1,-2,-1,1,-2,-1,0,6,1757009760246348619
0,0.04378128,20250904141600246,None,10,229.16510009765625,4,0,-3,1,0,0,0,5,1757009760246478080
0,0.058624983,20250904141600261,None,11,229.87901306152344,11,0,-3,-5,-4,-1,-3,1,1757009760261345386
0,0.058761835,20250904141600261,None,11,229.87901306152344,12,0,-1,1,-3,-1,0,8,1757009760261465549
0,0.066158294,20250904141600269,None,11,228.45120239257812,-1,-2,0,1,1,-2,3,2,1757009760268897771
0,0.066263437,20250904141600269,None,11,228.45120239257812,10,5,3,-3,-2,-1,-2,-12,1757009760269015312
0,0.073624611,20250904141600276,None,11,228.45120239257812,20,-3,-5,-2,2,3,-4,5,1757009760276311635
0,0.07383275,20250904141600276,None,10,228.45120239257812,17,-3,0,0,0,-5,0,0,1757009760276434659
0,0.088604212,20250904141600291,None,10,228.45120239257812,-9,-2,0,1,-3,-4,3,-1,1757009760291304111
0,0.088710308,20250904141600291,None,10,228.45120239257812,2,-1,0,-4,1,2,0,4,1757009760291437149
0,0.096083641,20250904141600299,None,11,230.83090209960938,-14,-5,-2,2,7,-1,-4,-2,1757009760298799753
0,0.096168041,20250904141600299,None,11,230.83090209960938,1,-1,-1,-3,-6,-3,-1,2,1757009760298920869
0,0.103492975,20250904141600306,None,11,228.6891632080078,-8,-3,-4,-9,-6,37,6,-1,1757009760306288957
0,0.103556871,20250904141600306,None,11,228.6891632080078,-8,-1,-5,0,0,-4,-3,1,1757009760306372404
0,0.118896484,20250904141600321,None,10,230.1169891357422,-7,3,2,1,0,-1,-5,-4,1757009760321537017
0,0.119055748,20250904141600322,None,10,230.1169891357422,5,-4,0,-3,-3,-1,-1,-3,1757009760321724891
0,0.126387357,20250904141600329,None,10,228.92713928222656,14,1,-1,-1,-2,-1,0,9,1757009760329033136
0,0.126524925,20250904141600329,None,10,228.92713928222656,-12,1,3,2,-3,-4,2,-6,1757009760329213619
0,0.133738041,20250904141600336,None,10,229.64105224609375,12,4,1,4,-1,-3,0,2,1757009760336439609
0,0.133858919,20250904141600336,None,10,229.64105224609375,5,1,-1,1,-1,-2,-2,-9,1757009760336582183
0,0.148674726,20250904141600351,None,10,230.35494995117188,-12,-4,0,-1,0,-1,0,3,1757009760351368188
0,0.148827076,20250904141600351,None,10,230.35494995117188,1,1,-2,-2,3,0,0,3,1757009760351500988
0,0.156140566,20250904141600359,None,10,228.6891632080078,2,-1,2,-1,-3,-9,-1,2,1757009760358794689
0,0.156297683,20250904141600359,None,10,228.6891632080078,-3,-1,-1,-1,-2,2,0,-1,1757009760358918428
0,0.163677454,20250904141600366,None,10,230.1169891357422,-6,0,-3,-2,-1,-1,-3,-5,1757009760366389751
0,0.163844824,20250904141600366,None,10,230.1169891357422,3,-3,-4,-3,-1,-1,-1,-2,1757009760366504430
0,0.178595304,20250904141600381,None,11,230.35494995117188,6,2,1,7,0,0,7,16,1757009760381358385
0,0.178691864,20250904141600381,None,11,230.35494995117188,1,-5,-5,-3,1,-1,0,-5,1757009760381469964
0,0.186052084,20250904141600389,None,11,228.21322631835938,-10,-1,1,0,-2,0,-8,-22,1757009760388853549
0,0.18614769,20250904141600389,None,11,228.21322631835938,3,0,-3,0,-3,0,-2,-4,1757009760388961076
0,0.193580627,20250904141600396,None,10,228.21322631835938,4,2,-1,-2,1,0,-6,6,1757009760396317720
0,0.19373703,20250904141600396,None,10,228.21322631835938,-11,-5,-10,-3,-2,1,9,-1,1757009760396433353
0,0.208587169,20250904141600411,None,10,228.92713928222656,8,-2,5,-2,-2,2,2,8,1757009760411309719
0,0.208714962,20250904141600411,None,10,228.92713928222656,14,2,2,-2,-2,2,2,6,1757009760411431789
0,0.216210127,20250904141600419,None,11,229.403076171875,-11,-4,-3,-4,-3,-12,-7,-12,1757009760418958663
0,0.216365576,20250904141600419,None,11,229.403076171875,1,-1,0,-2,-1,5,2,-2,1757009760419089078
0,0.223572492,20250904141600426,None,11,229.87901306152344,-9,0,3,0,0,0,-1,-3,1757009760426362514
0,0.223639011,20250904141600426,None,11,229.87901306152344,4,1,0,3,-4,-1,1,3,1757009760426476478
0,0.238783121,20250904141600441,None,11,228.21322631835938,14,-2,1,-4,-15,-2,-3,-5,1757009760441434860
0,0.238934278,20250904141600441,None,11,228.21322631835938,18,1,-4,2,1,2,2,8,1757009760441570758
0,0.246234178,20250904141600449,None,10,230.35494995117188,-4,0,2,-1,4,2,2,-9,1757009760448937892
0,0.246355533,20250904141600449,None,10,230.35494995117188,3,-1,-2,-5,-2,-1,-6,1,1757009760449079990
0,0.253598213,20250904141600456,None,10,228.21322631835938,4,-1,-1,-3,-2,1,4,8,1757009760456382989
0,0.253700018,20250904141600456,None,10,228.21322631835938,6,-1,2,1,1,-3,-4,-4,1757009760456501245
0,0.268643141,20250904141600471,None,11,228.45120239257812,11,1,-1,-1,-2,2,3,1,1757009760471359491
0,0.268760919,20250904141600471,None,11,228.45120239257812,3,0,1,-2,3,5,-2,-6,1757009760471477985
0,0.276153326,20250904141600479,None,11,228.45120239257812,-8,-1,-1,3,2,-5,-1,3,1757009760478831052
0,0.276319742,20250904141600479,None,11,228.45120239257812,4,0,0,-2,3,-3,5,5,1757009760478941917
0,0.283756971,20250904141600486,None,10,230.59292602539062,2,1,-1,-1,-1,0,0,11,1757009760486435174
0,0.283890009,20250904141600486,None,10,230.59292602539062,-1,4,1,-3,-1,-1,-1,-8,1757009760486587285
0,0.298655987,20250904141600501,None,11,229.403076171875,-2,-4,-8,-1,-4,-1,-2,-6,1757009760501380443
0,0.298797369,20250904141600501,None,11,229.403076171875,-11,-4,3,-1,1,-2,-4,-6,1757009760501507997
0,0.30616188,20250904141600509,None,11,229.403076171875,22,12,7,-1,2,5,1,7,1757009760508877754
0,0.306324482,20250904141600509,None,11,229.403076171875,3,-2,-10,-8,-10,57,4,-5,1757009760508994817
0,0.313681602,20250904141600516,None,11,229.403076171875,-12,-8,-5,-3,-1,-2,-6,-3,1757009760516466856
0,0.313776016,20250904141600516,None,11,229.403076171875,10,7,0,0,-1,0,-3,1,1757009760516597986
0,0.328680038,20250904141600531,None,10,230.1169891357422,4,-4,-2,-1,1,1,2,1,1757009760531406164
0,0.328793525,20250904141600531,None,10,230.1169891357422,-7,-3,-4,-3,0,-5,-6,-3,1757009760531556367
0,0.336243629,20250904141600539,None,10,228.21322631835938,11,2,-3,0,0,-2,1,-4,1757009760538980007
0,0.336366653,20250904141600539,None,10,228.21322631835938,-27,-4,-2,-3,-2,-2,11,-5,1757009760539111375
0,0.343667269,20250904141600546,None,11,230.59292602539062,9,1,-2,-4,1,1,5,11,1757009760546403884
0,0.343754291,20250904141600546,None,11,230.59292602539062,-3,-4,-1,0,-1,-2,-6,-8,1757009760546553850
0,0.358730793,20250904141600561,None,10,228.21322631835938,-12,-7,-1,-1,-2,-1,-1,-4,1757009760561402320
0,0.358836889,20250904141600561,None,10,228.21322631835938,3,0,-14,-1,0,-1,-4,-3,1757009760561528205
0,0.366234779,20250904141600569,None,10,230.35494995117188,-28,3,19,-1,-2,-1,-2,2,1757009760568954467
0,0.36642456,20250904141600569,None,10,230.35494995117188,20,7,0,0,2,3,2,1,1757009760569076061
0,0.373696327,20250904141600576,None,10,228.45120239257812,-4,-13,-6,-2,-16,-1,-3,-3,1757009760576443672
0,0.373815059,20250904141600576,None,10,228.45120239257812,-4,1,-3,2,-1,-2,4,6,1757009760576585292
0,0.388837099,20250904141600591,None,10,229.87901306152344,0,-1,-2,0,2,2,1,-4,1757009760591461658
0,0.388993501,20250904141600591,None,10,229.87901306152344,-5,1,1,0,-1,-5,-6,4,1757009760591603040
0,0.396166324,20250904141600599,None,10,228.92713928222656,-2,-2,-5,1,0,1,1,2,1757009760598833084
0,0.396298885,20250904141600599,None,10,228.92713928222656,-4,-4,-1,-6,2,-2,1,-6,1757009760598965406
0,0.403639555,20250904141600606,None,10,228.92713928222656,13,8,5,8,10,-47,-2,3,1757009760606402873
0,0.4037292,20250904141600606,None,10,228.92713928222656,2,0,2,-1,0,0,0,2,1757009760606530904
0,0.418703317,20250904141600621,None,11,228.21322631835938,-3,0,0,-3,-2,-6,-4,-3,1757009760621410369
0,0.418824196,20250904141600621,None,11,228.21322631835938,-19,-1,-4,0,-1,4,6,4,1757009760621535539
0,0.426166296,20250904141600629,None,11,230.1169891357422,3,2,0,-1,2,-1,2,-1,1757009760628947496
0,0.426265001,20250904141600629,None,11,230.1169891357422,7,4,1,-1,-3,0,-2,-1,1757009760629058837
0,0.433630466,20250904141600636,None,11,230.1169891357422,0,10,-4,2,0,-3,-1,7,1757009760636384010
0,0.433713197,20250904141600636,None,11,230.1169891357422,0,-6,-1,-2,-6,2,-4,-13,1757009760636498212
0,0.448598623,20250904141600651,None,10,230.35494995117188,-8,-7,-9,-1,3,3,-5,-2,1757009760651369333
0,0.448690176,20250904141600651,None,10,230.35494995117188,3,6,10,0,-4,-4,-3,-2,1757009760651492595
0,0.456068516,20250904141600659,None,11,228.45120239257812,6,0,-4,2,-1,-3,-4,-6,1757009760658847808
0,0.456148624,20250904141600659,None,11,228.45120239257812,-2,-4,-5,1,-1,-3,0,1,1757009760658965826
0,0.463676691,20250904141600666,None,11,228.92713928222656,-1,-2,-2,-4,0,-5,-3,4,1757009760666451930
0,0.463760853,20250904141600666,None,11,228.92713928222656,2,-4,0,-2,2,-2,-4,-5,1757009760666583538
0,0.478559494,20250904141600681,None,10,229.16510009765625,0,-6,-3,-7,-1,4,17,1,1757009760681367635
0,0.478629589,20250904141600681,None,10,229.16510009765625,-1,4,7,3,2,-1,2,-5,1757009760681476593
0,0.486140966,20250904141600689,None,10,229.403076171875,-17,7,5,0,-4,1,4,9,1757009760688945293
0,0.486212969,20250904141600689,None,10,229.403076171875,21,-3,-7,1,-1,1,-1,-9,1757009760689059734
0,0.493674993,20250904141600696,None,11,229.64105224609375,-14,-3,2,1,2,-2,-4,-17,1757009760696343183
0,0.493900537,20250904141600696,None,11,229.64105224609375,10,5,2,3,-1,-4,-3,1,1757009760696445226
0,0.508810282,20250904141600711,None,11,228.45120239257812,5,4,3,0,6,2,-1,3,1757009760711455583
0,0.508967876,20250904141600711,None,11,228.45120239257812,-26,-5,-9,-2,-4,-4,-4,-2,1757009760711626529
0,0.516056061,20250904141600719,None,10,230.59292602539062,0,1,11,9,9,-61,-8,5,1757009760718822002
0,0.516143322,20250904141600719,None,10,230.59292602539062,-2,4,-1,-1,2,1,0,0,1757009760718947172
0,0.531637192,20250904141600734,None,11,230.59292602539062,9,8,0,-1,-3,1,2,7,1757009760733968019
0,0.53188014,20250904141600734,None,11,230.59292602539062,-6,-3,-1,0,-3,-7,-2,-3,1757009760734172582
0,0.539029598,20250904141600742,None,11,229.16510009765625,-3,-5,-4,-2,2,4,4,-3,1757009760741470575
0,0.539323807,20250904141600742,None,11,229.16510009765625,-7,-2,-1,-7,-3,-2,0,10,1757009760741607904
0,0.546588421,20250904141600749,None,10,230.1169891357422,8,2,-1,2,0,-1,-3,-13,1757009760748973369
0,0.546813488,20250904141600749,None,10,230.1169891357422,-12,-3,2,2,-1,4,4,-1,1757009760749102592
0,0.554055452,20250904141600757,None,10,230.1169891357422,-4,-4,-1,-2,1,0,1,-6,1757009760756478548
0,0.5543046,20250904141600757,None,10,230.1169891357422,-7,-5,-9,0,-2,-10,-7,-6,1757009760756623983
0,0.568951368,20250904141600771,None,10,229.64105224609375,-8,-1,9,-1,0,-4,-1,5,1757009760771370172
0,0.569173574,20250904141600772,None,10,229.64105224609375,-6,2,-3,-1,0,0,4,4,1757009760771501779
0,0.576582908,20250904141600779,None,11,229.64105224609375,20,-4,-15,-4,-2,-3,0,2,1757009760778870344
0,0.576798439,20250904141600779,None,11,229.64105224609375,-9,-2,10,2,-2,1,2,-5,1757009760778998374
0,0.58363986,20250904141600786,None,11,229.64105224609375,10,-4,1,5,3,6,8,18,1757009760786369562
0,0.583750725,20250904141600786,None,11,229.64105224609375,-1,10,-2,-1,-5,-3,-2,-5,1757009760786497354
0,0.598770857,20250904141600801,None,10,230.35494995117188,-21,9,-1,-4,-2,-4,-3,-24,1757009760801481008
0,0.598880768,20250904141600801,None,10,230.35494995117188,-5,-19,-4,0,-5,-3,-9,-6,1757009760801623344
0,0.606163978,20250904141600809,None,10,228.45120239257812,-2,-1,-9,1,10,5,5,5,1757009760808914422
0,0.606251955,20250904141600809,None,10,228.45120239257812,-11,-10,5,-1,-6,2,-2,1,1757009760809042215
0,0.613645077,20250904141600816,None,11,230.59292602539062,-1,-4,-12,-4,6,0,3,2,1757009760816429615
0,0.613737821,20250904141600816,None,11,230.59292602539062,1,8,-2,3,0,0,0,6,1757009760816561222
0,0.628708601,20250904141600831,None,10,228.21322631835938,5,-9,4,-2,-1,1,-2,-8,1757009760831442117
0,0.628808498,20250904141600831,None,10,228.21322631835938,-5,5,12,0,0,4,0,0,1757009760831594944
0,0.636095524,20250904141600839,None,10,229.87901306152344,0,3,-2,-6,0,-1,2,12,1757009760838862657
0,0.636177301,20250904141600839,None,10,229.87901306152344,-7,-7,-3,2,11,-42,-6,-15,1757009760839007377
0,0.643538713,20250904141600846,None,10,228.6891632080078,3,-1,-17,-3,0,2,1,7,1757009760846335411
0,0.643617868,20250904141600846,None,10,228.6891632080078,8,0,7,-3,-1,-1,1,5,1757009760846455097
0,0.658655643,20250904141600861,None,11,229.64105224609375,13,10,2,8,-2,1,-4,-2,1757009760861422061
0,0.658771276,20250904141600861,None,11,229.64105224609375,7,7,5,2,1,-1,6,11,1757009760861562967
0,0.666154384,20250904141600869,None,10,228.6891632080078,-21,-8,-2,-3,-1,0,-2,-5,1757009760868935108
0,0.666228533,20250904141600869,None,10,228.6891632080078,-17,-27,-24,-6,1,2,-4,-5,1757009760869059085
0,0.673715114,20250904141600876,None,10,230.59292602539062,-1,15,8,0,0,1,-1,6,1757009760876456499
0,0.673828363,20250904141600876,None,10,230.59292602539062,12,-4,21,2,0,1,-2,1,1757009760876613855
0,0.688700437,20250904141600891,None,11,228.45120239257812,-3,32,6,-1,-5,0,4,-7,1757009760891424417
0,0.688813209,20250904141600891,None,11,228.45120239257812,-7,-12,1,1,-1,-7,-4,-8,1757009760891592741
0,0.696125746,20250904141600899,None,11,229.64105224609375,-8,-8,-14,0,1,-2,-2,6,1757009760898866415
0,0.696215629,20250904141600899,None,11,229.64105224609375,-7,-8,10,-2,0,2,-3,-10,1757009760898986101
0,0.711222887,20250904141600914,None,10,230.35494995117188,-16,-9,-14,-3,-6,1,4,-9,1757009760913968563
0,0.711385965,20250904141600914,None,10,230.35494995117188,-10,-13,-11,-2,4,3,1,-2,1757009760914150953
0,0.718747616,20250904141600921,None,10,230.35494995117188,8,6,25,-1,-5,-6,-12,6,1757009760921484470
0,0.71884036,20250904141600921,None,10,230.35494995117188,-22,1,-5,1,-1,0,0,-1,1757009760921637296
0,0.726187229,20250904141600929,None,10,228.6891632080078,13,9,2,-4,-5,-4,1,12,1757009760928942680
0,0.726265192,20250904141600929,None,10,228.6891632080078,7,8,8,-1,0,1,-12,-15,1757009760929076194
0,0.741233587,20250904141600944,None,10,229.64105224609375,-5,-6,-8,5,-5,-5,1,2,1757009760943939924
0,0.741393327,20250904141600944,None,10,229.64105224609375,0,-9,0,0,0,0,-2,-7,1757009760944151639
0,0.748606205,20250904141600951,None,10,228.92713928222656,-8,-4,-2,2,-1,0,-1,0,1757009760951389551
0,0.74868679,20250904141600951,None,10,228.92713928222656,5,6,-2,-2,3,3,4,-2,1757009760951514720
0,0.756139755,20250904141600959,None,10,228.92713928222656,5,-16,5,1,2,8,4,5,1757009760958899497
0,0.756222009,20250904141600959,None,10,228.92713928222656,-6,18,-1,-8,-7,-12,-10,-2,1757009760959039926
0,0.763572693,20250904141600966,None,10,230.1169891357422,5,3,17,0,-1,-1,2,-8,1757009760966372966
0,0.763655662,20250904141600966,None,10,230.1169891357422,-5,-16,-22,1,4,0,0,-10,1757009760966491222
0,0.778738737,20250904141600981,None,10,230.59292602539062,-5,-2,-8,-3,-5,41,6,-5,1757009760981459140
0,0.778864145,20250904141600981,None,10,230.59292602539062,0,-7,15,-2,-4,-1,-5,-3,1757009760981626510
0,0.786158323,20250904141600989,None,10,228.21322631835938,-1,-5,2,-3,-2,10,2,8,1757009760988921642
0,0.786255836,20250904141600989,None,10,228.21322631835938,7,37,-24,-4,0,-6,1,-1,1757009760989045619
0,0.793581486,20250904141600996,None,10,228.21322631835938,-5,-12,25,4,3,0,1,0,1757009760996378898
0,0.793665647,20250904141600996,None,10,228.21322631835938,8,-6,-7,-2,-1,-2,-3,-6,1757009760996493339
0,0.808665275,20250904141601011,None,11,228.6891632080078,-3,-60,-17,-4,0,4,3,0,1757009761011388063
0,0.808753252,20250904141601011,None,11,228.6891632080078,0,66,9,-1,-3,-1,3,4,1757009761011518001
0,0.816090345,20250904141601019,None,10,228.6891632080078,2,-10,-14,-1,6,0,-2,3,1757009761018854379
0,0.816176176,20250904141601019,None,10,228.6891632080078,1,-22,-1,1,-3,-1,-1,-2,1757009761018976688
0,0.823585272,20250904141601026,None,10,229.403076171875,-32,16,13,-3,-5,-3,1,-9,1757009761026383876
0,0.823671818,20250904141601026,None,10,229.403076171875,4,-27,-16,0,1,2,-6,-1,1757009761026510238
0,0.838742018,20250904141601041,None,10,229.403076171875,3,20,9,3,1,0,-1,10,1757009761041461944
0,0.838828325,20250904141601041,None,10,229.403076171875,-3,17,9,4,-1,1,6,-5,1757009761041652441
0,0.846361637,20250904141601049,None,11,230.59292602539062,-10,-29,-6,-4,-6,-6,-5,-4,1757009761049039602
0,0.84644556,20250904141601049,None,11,230.59292602539062,12,-4,-29,-5,-2,1,3,12,1757009761049198865
0,0.861127376,20250904141601064,None,10,230.59292602539062,5,9,29,-1,-2,-7,-15,0,1757009761063876628
0,0.861220836,20250904141601064,None,10,230.59292602539062,-1,4,10,1,0,2,9,-2,1757009761064037084
0,0.868765831,20250904141601071,None,11,228.45120239257812,2,-4,-10,-1,-1,0,9,9,1757009761071506261
0,0.868863106,20250904141601071,None,11,228.45120239257812,2,-6,-3,0,-2,2,-5,0,1757009761071652889
0,0.87608552,20250904141601079,None,11,228.45120239257812,-18,-25,-22,-2,-4,7,-3,1,1757009761078844785
0,0.876177072,20250904141601079,None,11,228.45120239257812,5,35,10,-1,-4,-11,-8,-4,1757009761078984260
0,0.891168594,20250904141601094,None,10,228.21322631835938,-1,-10,0,-1,1,4,10,-2,1757009761093950033
0,0.891231298,20250904141601094,None,10,228.21322631835938,-8,-16,7,2,-4,-1,-2,2,1757009761094096183
0,0.898584127,20250904141601101,None,10,230.1169891357422,1,29,1,-1,-1,2,3,1,1757009761101341724
0,0.898658514,20250904141601101,None,10,230.1169891357422,6,-2,9,5,2,0,1,4,1757009761101463079
0,0.90613532,20250904141601109,None,10,229.403076171875,-16,-18,-15,-5,1,-1,-1,3,1757009761108941078
0,0.906351328,20250904141601109,None,10,229.403076171875,6,-6,12,6,4,-42,-3,0,1757009761109114170
0,0.921131372,20250904141601124,None,11,229.403076171875,-32,-24,-12,-6,-1,-8,-6,-3,1757009761123896598
0,0.921238184,20250904141601124,None,11,229.403076171875,6,10,-1,-6,7,-2,0,-5,1757009761124033689
0,0.929175615,20250904141601132,None,11,230.1169891357422,11,27,8,8,2,2,-6,4,1757009761131360769
0,0.929558754,20250904141601132,None,11,230.1169891357422,-1,-5,-2,-5,0,2,-1,4,1757009761131543874
0,0.936438083,20250904141601139,None,10,228.6891632080078,-8,-22,-22,-4,-3,2,2,1,1757009761138899564
0,0.936705351,20250904141601139,None,10,228.6891632080078,-21,-20,-24,-4,-2,-3,-3,-31,1757009761139067649
0,0.951525926,20250904141601154,None,11,230.59292602539062,3,23,39,3,-4,-4,-3,0,1757009761153968572
0,0.951741457,20250904141601154,None,11,230.59292602539062,22,16,-1,2,0,-4,-5,6,1757009761154103279
0,0.958834171,20250904141601161,None,11,228.45120239257812,-6,-37,-14,2,2,1,1,2,1757009761161409616
0,0.959061146,20250904141601162,None,11,228.45120239257812,-3,30,-20,-3,-4,-5,0,1,1757009761161553144
0,0.966379165,20250904141601169,None,11,230.1169891357422,-19,-10,30,2,5,3,-3,5,1757009761168937206
0,0.966571331,20250904141601169,None,11,230.1169891357422,10,-5,-10,-4,-4,0,2,7,1757009761169051647
0,0.981333494,20250904141601184,None,10,230.1169891357422,-6,-28,-2,-11,-3,-1,0,-4,1757009761183839797
0,0.981520176,20250904141601184,None,10,230.1169891357422,-18,31,3,7,4,-2,-4,-4,1757009761183961153
0,0.988755226,20250904141601191,None,10,230.1169891357422,-2,-40,-9,0,-1,-5,0,5,1757009761191353559
0,0.988969803,20250904141601191,None,10,230.1169891357422,19,60,-2,-1,3,-3,-4,-10,1757009761191468477
0,0.99655509,20250904141601199,None,10,229.403076171875,7,5,17,3,-1,2,4,7,1757009761198848485
0,0.99674344,20250904141601199,None,10,229.403076171875,-10,-21,-4,-1,-9,-9,-8,-8,1757009761198964834
0,1.011430502,20250904141601214,None,10,229.87901306152344,0,22,-5,-2,3,6,-2,-1,1757009761214007377
0,1.011570692,20250904141601214,None,10,229.87901306152344,3,-17,4,-3,-3,-10,-3,7,1757009761214189529
0,1.018624067,20250904141601221,None,10,228.6891632080078,-6,-11,-19,-3,-1,-3,-2,0,1757009761221395492
0,1.018735647,20250904141601221,None,10,228.6891632080078,6,-17,-3,-5,0,7,9,7,1757009761221547126
0,1.02617526,20250904141601229,None,11,230.35494995117188,-6,43,27,6,-14,1,0,-6,1757009761228930473
0,1.026289701,20250904141601229,None,11,230.35494995117188,2,-16,-2,3,2,-3,-3,-4,1757009761229046583
0,1.041163206,20250904141601244,None,10,228.45120239257812,7,-34,-34,-5,-4,-2,-7,4,1757009761243913650
0,1.041265249,20250904141601244,None,10,228.45120239257812,-2,29,18,0,-3,4,1,-6,1757009761244079351
0,1.048660755,20250904141601251,None,10,230.83090209960938,-3,30,20,4,3,1,1,-19,1757009761251376628
0,1.048783541,20250904141601251,None,10,230.83090209960938,4,-26,-37,-7,-2,-2,-1,11,1757009761251507997
0,1.056073665,20250904141601259,None,10,228.6891632080078,1,-4,26,-3,-2,-3,-6,-1,1757009761258855819
0,1.056147337,20250904141601259,None,10,228.6891632080078,1,3,-7,1,-1,-7,-2,10,1757009761258977651
0,1.071288109,20250904141601274,None,11,229.403076171875,5,10,-15,-3,-1,-2,-4,3,1757009761274000167
0,1.07140398,20250904141601274,None,11,229.403076171875,5,-7,-1,5,4,5,3,1,1757009761274134874
0,1.08685112,20250904141601289,None,11,229.64105224609375,12,3,16,-6,-5,-6,-1,-2,1757009761289548397
0,1.086961508,20250904141601289,None,11,229.64105224609375,-4,-23,-13,-3,0,3,0,0,1757009761289686441
0,1.087610245,20250904141601290,None,11,229.64105224609375,-7,-16,-6,-1,-3,-3,0,-3,1757009761290371894
0,1.087733745,20250904141601290,None,11,229.64105224609375,1,77,13,9,-1,-5,0,3,1757009761290536165
0,1.10123682,20250904141601304,None,10,228.92713928222656,4,-14,3,4,3,-36,-5,-2,1757009761303965091
0,1.101353884,20250904141601304,None,10,228.92713928222656,4,-43,-3,-7,2,2,1,-3,1757009761304126739
0,1.108718395,20250904141601311,None,11,229.16510009765625,5,37,7,0,3,5,1,1,1757009761311469316
0,1.108822822,20250904141601311,None,11,229.16510009765625,2,-7,-7,2,-2,-2,-2,8,1757009761311613082
0,1.116200447,20250904141601319,None,11,229.16510009765625,6,-7,4,1,1,0,1,0,1757009761318989276
0,1.116313696,20250904141601319,None,11,229.16510009765625,-3,-7,-2,-4,-5,5,2,-4,1757009761319104671
0,1.131368875,20250904141601334,None,10,230.59292602539062,5,-19,-24,-12,-6,-13,-7,1,1757009761334000587
0,1.131474018,20250904141601334,None,10,230.59292602539062,-4,-26,-6,-8,-7,-9,-5,-5,1757009761334138393
0,1.138811588,20250904141601341,None,10,228.45120239257812,7,49,36,14,8,2,5,16,1757009761341522932
0,1.138914823,20250904141601341,None,10,228.45120239257812,2,13,2,1,1,3,-1,-8,1757009761341677904
0,1.146322012,20250904141601349,None,11,230.59292602539062,-3,-36,-37,-2,9,2,-2,-20,1757009761349071502
0,1.1464004509999999,20250904141601349,None,11,230.59292602539062,2,-19,9,-4,-15,0,4,2,1757009761349217176
0,1.161518335,20250904141601364,None,11,228.92713928222656,7,52,26,3,2,-1,-2,5,1757009761364188194
0,1.162165642,20250904141601365,None,10,228.92713928222656,-18,-10,-7,-3,-4,0,1,0,1757009761364443302
0,1.168968439,20250904141601371,None,10,229.87901306152344,2,-35,-36,-8,-4,-1,1,-1,1757009761371448040
0,1.169179439,20250904141601372,None,10,229.87901306152344,-14,-51,5,-2,-4,-5,-3,-1,1757009761371590614
0,1.176497698,20250904141601379,None,10,229.64105224609375,18,92,7,1,4,1,2,9,1757009761378993749
0,1.17668581,20250904141601379,None,10,229.64105224609375,7,-15,7,4,4,2,1,1,1757009761379111528
0,1.191699743,20250904141601394,None,11,228.21322631835938,-10,-17,-15,-3,-3,-4,-5,-7,1757009761393927097
0,1.192031145,20250904141601395,None,11,230.35494995117188,3,-3,4,-1,-4,4,0,10,1757009761394086122
0,1.199029207,20250904141601402,None,10,230.35494995117188,9,5,-2,-3,0,-6,-5,-3,1757009761401361227
0,1.19924736,20250904141601402,None,10,230.35494995117188,-1,-7,4,-3,-4,-4,-4,-4,1757009761401469230
0,1.206564903,20250904141601409,None,10,228.21322631835938,-10,-70,-14,17,3,0,4,3,1757009761408861398
0,1.2067668440000001,20250904141601409,None,10,228.21322631835938,-6,104,-2,4,-4,-5,-2,2,1757009761408919095
0,1.2216537,20250904141601424,None,11,228.45120239257812,10,-8,30,4,11,3,0,-1,1757009761423876762
0,1.221904039,20250904141601424,None,11,228.45120239257812,-8,3,45,6,-3,5,1,6,1757009761424020051
0,1.229171037,20250904141601432,None,11,230.59292602539062,-5,-21,-52,-7,0,-7,-7,-12,1757009761431481838
0,1.229444027,20250904141601432,None,11,230.59292602539062,3,-3,1,-5,-10,-4,-1,-5,1757009761431617736
0,1.236680984,20250904141601439,None,10,230.59292602539062,-14,8,8,4,4,-2,-2,-7,1757009761438954830
0,1.237012386,20250904141601439,None,10,228.6891632080078,0,-24,-22,-4,-4,-1,-4,-5,1757009761439067602
0,1.251798868,20250904141601454,None,10,229.87901306152344,-1,13,5,-2,1,1,-3,8,1757009761454016923
0,1.252039194,20250904141601455,None,10,229.87901306152344,5,5,-8,-4,-6,-1,7,12,1757009761454146862
0,1.259178161,20250904141601462,None,11,229.403076171875,-24,-66,7,0,0,-5,-7,-19,1757009761461461782
0,1.259595871,20250904141601462,None,11,229.403076171875,-9,77,11,-3,3,4,2,-9,1757009761461579084
0,1.266548157,20250904141601469,None,11,228.92713928222656,1,-47,-22,1,-1,1,3,5,1757009761468817234
0,1.2667512890000001,20250904141601469,None,11,228.92713928222656,-9,-39,12,-2,7,-2,1,13,1757009761468917608
0,1.2816908360000001,20250904141601484,None,10,230.35494995117188,-4,57,-5,-5,-14,-9,-11,-21,1757009761483908653
0,1.281932115,20250904141601484,None,10,230.35494995117188,4,-32,3,5,10,8,5,2,1757009761484050750
0,1.288707256,20250904141601491,None,10,228.21322631835938,4,12,23,2,-3,-13,-3,2,1757009761491387367
0,1.2891380780000001,20250904141601492,None,10,228.21322631835938,-10,-45,-25,-7,-2,0,8,-1,1757009761491502285
0,1.296233415,20250904141601499,None,10,230.59292602539062,-2,27,-11,-4,1,-7,-10,1,1757009761498983144
0,1.296347618,20250904141601499,None,10,230.59292602539062,-1,4,-7,-1,5,8,4,-8,1757009761499095916
0,1.311096668,20250904141601514,None,10,228.21322631835938,1,-3,13,5,1,2,0,4,1757009761513866662
0,1.311192274,20250904141601514,None,10,228.21322631835938,11,6,7,5,4,6,3,-1,1757009761513972997
0,1.318958044,20250904141601521,None,10,230.35494995117188,-17,-10,-5,-10,-6,-10,-9,-9,1757009761521584749
0,1.319035291,20250904141601521,None,10,230.35494995117188,-6,-25,-45,1,3,0,-1,-1,1757009761521769046
0,1.326130628,20250904141601529,None,10,228.45120239257812,6,35,36,1,1,1,-4,0,1757009761528891324
0,1.3262071610000001,20250904141601529,None,10,228.45120239257812,2,26,8,6,1,-3,1,2,1757009761529028654
0,1.341388702,20250904141601544,None,11,228.6891632080078,-8,-20,-4,1,0,0,-3,-5,1757009761544044017
0,1.341541528,20250904141601544,None,11,228.6891632080078,-2,-15,-5,-14,-5,9,2,1,1757009761544213056
0,1.348671198,20250904141601551,None,11,229.403076171875,0,5,-4,-2,1,-4,-1,-6,1757009761551406621
0,1.348792553,20250904141601551,None,11,229.403076171875,-1,36,25,3,5,2,-1,-2,1757009761551521062
0,1.35619688,20250904141601559,None,11,229.403076171875,-6,-18,-8,-1,-1,-3,-3,4,1757009761558986186
0,1.356401682,20250904141601559,None,10,229.403076171875,-6,-24,-6,1,-7,-11,4,1,1757009761559093952
0,1.3711655139999999,20250904141601574,None,10,228.21322631835938,1,-10,-32,-15,1,3,6,11,1757009761573913812
0,1.371299505,20250904141601574,None,10,228.21322631835938,-11,21,41,5,-3,-7,-7,-19,1757009761574030637
0,1.378629684,20250904141601581,None,11,230.1169891357422,-9,-31,-42,-4,0,-1,-3,0,1757009761581374645
0,1.37874484,20250904141601581,None,11,230.1169891357422,-2,-22,1,-4,-6,-2,0,-8,1757009761581484794
0,1.386069298,20250904141601589,None,11,228.21322631835938,-10,66,31,3,-1,-3,-5,4,1757009761588863134
0,1.386194467,20250904141601589,None,11,228.21322631835938,7,-24,3,4,2,6,6,7,1757009761588981389
0,1.40164113,20250904141601604,None,10,230.35494995117188,-7,0,2,-3,-7,-13,-8,2,1757009761604019403
0,1.401888609,20250904141601604,None,10,230.35494995117188,5,-26,-11,-5,-1,-4,-4,2,1757009761604156017
0,1.40864253,20250904141601611,None,10,228.21322631835938,9,33,-7,-7,-2,1,1,3,1757009761611390352
0,1.4087660309999999,20250904141601611,None,10,228.21322631835938,-17,-118,-35,-6,-1,2,1,-2,1757009761611506938
0,1.416136265,20250904141601619,None,11,229.64105224609375,9,127,64,11,10,11,4,-1,1757009761618929147
0,1.416187286,20250904141601619,None,11,229.64105224609375,9,-25,0,1,-2,-4,1,6,1757009761619058132
0,1.431227922,20250904141601634,None,10,227.97525024414062,-1,-43,-24,-7,5,5,-3,-2,1757009761633922100
0,1.4313867089999999,20250904141601634,None,10,227.97525024414062,0,-7,-1,-4,-3,-2,1,-10,1757009761634057521
0,1.438560009,20250904141601641,None,10,229.403076171875,1,-6,-45,11,4,0,-1,-1,1757009761641366004
0,1.438633442,20250904141601641,None,10,229.403076171875,-5,-7,18,-7,-3,-3,1,4,1757009761641490697
0,1.445896387,20250904141601648,None,10,229.87901306152344,1,7,5,1,6,6,-3,3,1757009761648720979
0,1.445950031,20250904141601648,None,10,229.87901306152344,9,18,24,4,1,-5,0,1,1757009761648811340
0,1.461117744,20250904141601664,None,11,230.35494995117188,-6,-32,-14,-7,-3,6,1,2,1757009761663839817
0,1.461253881,20250904141601664,None,11,230.35494995117188,-5,22,-1,-7,-6,-4,-3,15,1757009761663966894
0,1.468688488,20250904141601671,None,10,228.6891632080078,-7,-49,-29,-6,-1,4,8,1,1757009761671461343
0,1.468775749,20250904141601671,None,10,228.6891632080078,-15,27,5,2,5,-3,-6,-24,1757009761671588659
0,1.4763717650000001,20250904141601679,None,10,228.6891632080078,0,-37,21,-6,-14,-8,-14,-8,1757009761679064750
0,1.476518869,20250904141601679,None,10,230.59292602539062,1,48,-42,2,15,1,2,-1,1757009761679243803
0,1.491244793,20250904141601694,None,10,228.21322631835938,-3,-69,14,0,-2,0,3,2,1757009761694004774
0,1.491354942,20250904141601694,None,10,228.21322631835938,-4,85,24,-1,1,-2,2,-9,1757009761694101572
0,1.5068140030000001,20250904141601709,None,10,228.45120239257812,5,-33,-21,-2,5,4,-1,6,1757009761709574937
0,1.50690937,20250904141601709,None,10,228.45120239257812,-11,-21,-15,-5,-6,-4,-3,3,1757009761709709644
0,1.507555246,20250904141601710,None,10,228.45120239257812,13,26,27,6,1,0,3,-6,1757009761710380792
0,1.507653951,20250904141601710,None,10,228.45120239257812,-10,-7,-2,-12,-7,-5,-5,5,1757009761710494041
0,1.521266937,20250904141601724,None,10,229.16510009765625,-13,-29,-69,-8,-1,-7,0,-3,1757009761724012374
0,1.5213692189999999,20250904141601724,None,10,229.16510009765625,-2,11,71,11,5,4,0,-8,1757009761724164962
0,1.5286870000000001,20250904141601731,None,10,229.64105224609375,-3,-6,-23,2,11,1,2,-5,1757009761731466293
0,1.528740406,20250904141601731,None,10,229.64105224609375,-5,11,-16,-5,1,2,-2,3,1757009761731596469
0,1.536184788,20250904141601739,None,11,228.6891632080078,-20,-34,-36,-4,-5,-4,-3,-7,1757009761738980531
0,1.5362572669999999,20250904141601739,None,11,228.6891632080078,10,-10,18,5,-11,4,8,5,1757009761739109039
0,1.551187753,20250904141601754,None,10,228.21322631835938,0,2,34,5,15,-5,-6,-5,1757009761753915548
0,1.551296234,20250904141601754,None,10,228.21322631835938,-5,48,4,5,9,-8,-2,9,1757009761754083871
0,1.558693886,20250904141601761,None,10,228.21322631835938,2,-26,-25,-6,1,7,4,3,1757009761761423587
0,1.558799982,20250904141601761,None,10,228.21322631835938,-9,-49,-24,-6,3,36,3,-16,1757009761761553525
0,1.56607604,20250904141601769,None,10,230.59292602539062,10,43,28,2,-4,-4,-4,-2,1757009761768858671
0,1.5661404129999998,20250904141601769,None,10,230.59292602539062,6,-24,-21,3,-2,1,-2,3,1757009761768985748
0,1.581314564,20250904141601784,None,10,230.35494995117188,-16,89,20,-4,-2,1,5,-9,1757009761784018516
0,1.581489801,20250904141601784,None,10,230.35494995117188,18,-18,-6,1,-1,7,-1,7,1757009761784258842
0,1.58870244,20250904141601791,None,10,229.16510009765625,7,-8,6,0,1,3,1,-1,1757009761791451692
0,1.588777065,20250904141601791,None,10,229.16510009765625,-3,-27,-39,-7,-4,1,6,2,1757009761791621923
0,1.596192598,20250904141601799,None,10,229.16510009765625,-4,-2,32,5,1,-11,-7,-9,1757009761798943281
0,1.596270799,20250904141601799,None,10,229.16510009765625,-1,35,-32,2,-5,-7,-5,-1,1757009761799096822
0,1.6112442009999999,20250904141601814,None,11,229.64105224609375,7,23,48,-6,-2,4,4,4,1757009761813945770
0,1.6115760799999999,20250904141601814,None,11,229.64105224609375,-3,-20,-11,15,10,1,0,8,1757009761814104318
0,1.618745327,20250904141601821,None,11,229.16510009765625,0,-17,-24,-7,11,11,5,-7,1757009761821437835
0,1.618897915,20250904141601821,None,11,229.16510009765625,-10,-1,-21,-7,-9,-8,-2,-9,1757009761821587800
0,1.626114368,20250904141601829,None,10,230.1169891357422,3,35,16,-1,-2,-8,-9,-1,1757009761828839778
0,1.6262192720000002,20250904141601829,None,10,230.1169891357422,-18,-19,38,0,11,4,-2,2,1757009761828982353
0,1.64138627,20250904141601844,None,10,228.21322631835938,-9,-7,-30,-3,-2,-1,-2,-7,1757009761844040870
0,1.6415750980000001,20250904141601844,None,10,228.21322631835938,7,7,-9,-1,-4,1,3,21,1757009761844270944
0,1.648687362,20250904141601851,None,11,230.35494995117188,16,1,7,-2,-3,3,6,7,1757009761851436376
0,1.6487758160000001,20250904141601851,None,11,230.35494995117188,0,14,-6,2,0,-5,-8,-10,1757009761851567983
0,1.656291723,20250904141601859,None,11,228.21322631835938,-15,0,-11,-1,-6,-7,-1,-2,1757009761858982563
0,1.656384229,20250904141601859,None,11,228.21322631835938,7,7,13,-3,4,11,11,-3,1757009761859052896
0,1.6712877750000001,20250904141601874,None,10,228.6891632080078,-9,-21,-11,-4,-18,-10,-13,10,1757009761873944997
0,1.671415806,20250904141601874,None,10,228.6891632080078,13,52,21,3,7,-5,-2,2,1757009761874108314
0,1.678715944,20250904141601881,None,10,228.6891632080078,-9,-46,-42,-14,2,1,-3,0,1757009761881438493
0,1.679007292,20250904141601881,None,10,228.6891632080078,-6,-17,17,11,2,-5,-4,-7,1757009761881580591
0,1.686346769,20250904141601889,None,11,229.87901306152344,0,-14,-31,-5,-4,1,5,12,1757009761889051914
0,1.686455011,20250904141601889,None,11,229.87901306152344,-11,6,40,-8,-15,-7,-10,-16,1757009761889200925
0,1.701464891,20250904141601904,None,10,229.16510009765625,15,-29,-34,10,-11,-9,-8,-4,1757009761904159545
0,1.701585769,20250904141601904,None,10,229.16510009765625,-4,50,18,4,20,1,-2,1,1757009761904329538
0,1.70877409,20250904141601911,None,10,230.59292602539062,-15,-32,-2,-16,-10,-3,-1,-9,1757009761911543846
0,1.70887351,20250904141601911,None,10,230.59292602539062,-5,6,-21,4,-5,-5,0,-2,1757009761911672353
0,1.716343641,20250904141601919,None,10,230.59292602539062,19,25,7,3,0,12,4,3,1757009761919079542
0,1.716431618,20250904141601919,None,10,230.59292602539062,8,-11,21,-5,-1,0,5,8,1757009761919222593
0,1.731296062,20250904141601934,None,11,230.35494995117188,-10,-22,-19,-6,1,-9,-12,-6,1757009761933953046
0,1.7314171790000001,20250904141601934,None,11,230.35494995117188,-1,32,15,11,1,-6,-8,-1,1757009761934153556
0,1.7387082569999999,20250904141601941,None,11,227.97525024414062,8,15,-6,-1,-1,3,6,1,1757009761941427469
0,1.73881197,20250904141601941,None,11,227.97525024414062,-13,-30,2,0,5,-1,2,-3,1757009761941580533
0,1.7462511059999999,20250904141601949,None,10,230.1169891357422,6,-6,10,-2,-8,2,6,-12,1757009761948947191
0,1.746373892,20250904141601949,None,10,230.1169891357422,-3,41,11,1,9,13,-2,-1,1757009761949105978
0,1.7612705229999999,20250904141601964,None,10,228.6891632080078,2,-92,-36,-6,-1,-13,1,16,1757009761963974475
0,1.761415243,20250904141601964,None,10,228.6891632080078,-10,62,3,-1,3,-1,-3,-17,1757009761964118242
0,1.768754959,20250904141601971,None,11,229.87901306152344,-9,-40,2,1,4,3,-4,-13,1757009761971473932
0,1.768865108,20250904141601971,None,11,229.87901306152344,-7,-70,-18,1,-13,-3,4,3,1757009761971616268
0,1.7840611929999999,20250904141601987,None,10,229.16510009765625,4,80,49,5,-6,-2,-7,4,1757009761986447572
0,1.7843730450000002,20250904141601987,None,10,229.16510009765625,2,20,17,-3,0,4,3,1,1757009761986609220
0,1.791188717,20250904141601994,None,10,229.16510009765625,-4,-32,-66,0,6,3,3,-1,1757009761993885993
0,1.791378498,20250904141601994,None,10,229.16510009765625,-4,-12,37,0,1,-6,-7,-3,1757009761993993520
0,1.798723221,20250904141602001,None,11,230.35494995117188,-8,4,-25,5,-13,-7,0,-3,1757009762001394748
0,1.798849582,20250904141602001,None,11,230.35494995117188,-13,5,34,-7,-5,-1,2,-1,1757009762001537322
0,1.813767433,20250904141602016,None,11,230.35494995117188,-1,-10,-14,-4,5,3,-1,-8,1757009762016441345
0,1.813996553,20250904141602016,None,11,230.35494995117188,-15,-7,-22,-3,-4,-4,0,-6,1757009762016572237
0,1.8212563990000001,20250904141602024,None,10,228.45120239257812,-4,-46,-18,0,-4,-3,-1,-1,1757009762023999929
0,1.82136321,20250904141602024,None,10,228.45120239257812,1,68,32,-7,6,8,1,-1,1757009762024153232
0,1.828670263,20250904141602031,None,10,230.59292602539062,4,5,40,10,0,-12,-6,0,1757009762031420707
0,1.828751564,20250904141602031,None,10,230.59292602539062,-10,-32,-54,-8,7,-2,-1,6,1757009762031556606
0,1.8438255780000001,20250904141602046,None,11,228.45120239257812,3,0,23,4,7,8,-6,-11,1757009762046447038
0,1.8439996239999998,20250904141602046,None,11,228.45120239257812,0,0,0,-4,-1,6,9,4,1757009762046592950
0,1.8511819840000001,20250904141602054,None,11,230.1169891357422,-5,2,-2,-1,1,7,0,-9,1757009762053895473
0,1.8513655660000001,20250904141602054,None,11,230.1169891357422,-4,-10,-27,-10,-9,-10,-5,-9,1757009762054032564
0,1.85860157,20250904141602061,None,10,229.403076171875,-11,95,26,-2,-1,-4,-6,-5,1757009762061390876
0,1.8586900229999999,20250904141602061,None,10,229.403076171875,4,14,-11,-4,-7,1,-1,2,1757009762061519861
0,1.873708248,20250904141602076,None,10,229.87901306152344,-22,-44,14,-1,2,-8,0,-24,1757009762076426267
0,1.873803139,20250904141602076,None,10,229.87901306152344,18,31,8,5,4,2,2,27,1757009762076577186
0,1.8812141420000001,20250904141602084,None,11,229.87901306152344,6,10,-9,4,-1,-1,-3,-11,1757009762083961248
0,1.8813288209999999,20250904141602084,None,11,229.87901306152344,-3,4,9,-3,-14,-10,-10,-9,1757009762084100961
0,1.888741731,20250904141602091,None,11,228.6891632080078,-6,-45,-29,-1,29,23,10,0,1757009762091482400
0,1.8888187410000001,20250904141602091,None,11,228.6891632080078,0,17,7,1,-16,-13,-3,-3,1757009762091648578
0,1.903770208,20250904141602106,None,10,228.45120239257812,15,19,24,11,3,-6,-1,7,1757009762106477022
0,1.9038977620000002,20250904141602106,None,10,228.45120239257812,-12,-13,17,2,0,-3,-4,-10,1757009762106624841
0,1.9193453790000001,20250904141602122,None,11,228.21322631835938,-2,8,-11,1,4,8,-1,1,1757009762122075080
0,1.919450521,20250904141602122,None,11,228.21322631835938,-18,-23,-22,-16,-7,-2,1,-5,1757009762122205972
0,1.920072078,20250904141602123,None,11,228.21322631835938,-11,-17,-6,10,3,-2,1,-3,1757009762122895479
0,1.920169353,20250904141602123,None,11,228.21322631835938,13,20,1,12,8,6,5,5,1757009762123003721
0,1.9336440559999999,20250904141602136,None,10,230.59292602539062,-14,-3,11,8,-6,-7,-2,1,1757009762136388540
0,1.933730364,20250904141602136,None,10,230.59292602539062,-4,-11,-10,-15,-3,1,-5,-8,1757009762136540412
0,1.941221714,20250904141602144,None,10,229.16510009765625,-1,-38,-3,-3,-7,0,7,7,1757009762144003152
0,1.94131875,20250904141602144,None,10,229.16510009765625,1,45,3,1,-7,-9,-3,-3,1757009762144127368
0,1.948705435,20250904141602151,None,10,229.64105224609375,0,-23,-5,-1,2,6,-1,-1,1757009762151409626
0,1.948837042,20250904141602151,None,10,229.64105224609375,-7,-10,10,-4,1,6,2,3,1757009762151540517
0,1.9638254640000001,20250904141602166,None,11,229.403076171875,6,-61,-48,2,-2,-11,1,7,1757009762166501522
0,1.9639418119999998,20250904141602166,None,11,229.403076171875,10,15,38,-1,0,3,2,4,1757009762166672706
0,1.9712674620000001,20250904141602174,None,11,228.6891632080078,-19,79,30,11,-3,-32,-16,-29,1757009762174015522
0,1.971389293,20250904141602174,None,11,228.6891632080078,-5,-58,-8,-6,-2,25,11,11,1757009762174146413
0,1.9787466519999999,20250904141602181,None,10,230.59292602539062,6,-13,-33,-8,-9,-1,3,-8,1757009762181462049
0,1.978886843,20250904141602181,None,10,230.59292602539062,4,-1,-23,-7,-1,0,2,19,1757009762181604862
0,1.9939620489999998,20250904141602196,None,10,230.83090209960938,-11,-9,20,-4,-1,-1,-4,4,1757009762196573972
0,1.9940855499999999,20250904141602197,None,10,230.83090209960938,13,6,-16,5,-4,-5,1,-1,1757009762196750402
0,2.001591444,20250904141602204,None,11,230.83090209960938,-15,7,24,-1,3,-7,-3,-1,1757009762203906536
0,2.001807213,20250904141602204,None,11,230.83090209960938,-16,-14,-12,-1,8,-5,2,0,1757009762204037189
0,2.008708,20250904141602211,None,11,228.21322631835938,4,4,-3,-1,0,-1,-2,-11,1757009762211412191
0,2.008829832,20250904141602211,None,11,228.21322631835938,-2,1,0,5,14,12,7,3,1757009762211581945
0,2.023783445,20250904141602226,None,10,228.92713928222656,-4,7,-9,-11,-4,-13,-4,3,1757009762226485729
0,2.023898124,20250904141602226,None,10,228.92713928222656,-11,8,2,-4,-12,-1,-5,-7,1757009762226631164
0,2.031132459,20250904141602234,None,10,229.64105224609375,19,10,33,15,-6,1,2,8,1757009762233863830
0,2.031224251,20250904141602234,None,10,229.64105224609375,-3,-8,-52,-10,-5,-15,-6,-5,1757009762233999729
0,2.038594961,20250904141602241,None,11,229.64105224609375,-6,-24,48,3,-14,0,7,-4,1757009762241360187
0,2.038686991,20250904141602241,None,11,229.64105224609375,1,49,-4,3,11,6,-1,1,1757009762241491794
0,2.053735256,20250904141602256,None,11,228.6891632080078,-3,-12,17,2,0,1,-4,-3,1757009762256449937
0,2.05384469,20250904141602256,None,11,228.6891632080078,-22,-30,-26,-9,2,1,-1,2,1757009762256601810
0,2.061235666,20250904141602264,None,10,230.1169891357422,4,-6,-20,-4,4,0,-5,-2,1757009762263959407
0,2.061355352,20250904141602264,None,10,230.1169891357422,-14,-99,-10,-4,-8,4,2,-1,1757009762264117717
0,2.068624019,20250904141602271,None,10,228.21322631835938,1,82,9,1,-3,4,-1,-3,1757009762271401882
0,2.06872797,20250904141602271,None,10,228.21322631835938,22,20,18,8,2,-1,5,3,1757009762271536111
0,2.083693266,20250904141602286,None,11,230.59292602539062,-30,-82,-48,-4,-6,12,12,-6,1757009762286409378
0,2.083829403,20250904141602286,None,11,230.59292602539062,10,41,21,0,-1,-29,-14,-3,1757009762286558151
0,2.09121108,20250904141602294,None,11,228.6891632080078,4,0,15,7,19,-8,-22,-7,1757009762293879270
0,2.091399193,20250904141602294,None,11,228.6891632080078,-13,-21,-4,-6,-19,11,26,6,1757009762294090747
0,2.098759413,20250904141602301,None,10,230.59292602539062,-21,-68,-13,-7,-8,2,3,-11,1757009762301447153
0,2.098879337,20250904141602301,None,10,230.59292602539062,32,73,-47,-1,-4,-3,-2,11,1757009762301613092
0,2.113655805,20250904141602316,None,10,229.87901306152344,-10,-2,73,3,-8,-7,1,9,1757009762316416263
0,2.113775491,20250904141602316,None,10,229.87901306152344,-15,-41,-31,-8,-3,0,-7,-22,1757009762316545724
0,2.121077299,20250904141602324,None,10,229.87901306152344,0,24,0,2,-6,-5,-5,-7,1757009762323846578
0,2.121182441,20250904141602324,None,10,229.87901306152344,3,38,24,21,13,-3,0,3,1757009762323958635
0,2.128582954,20250904141602331,None,11,229.403076171875,-10,-24,-20,-21,-13,4,9,10,1757009762331356525
0,2.128695011,20250904141602331,None,11,229.403076171875,-24,-22,-39,1,4,0,-10,-9,1757009762331469058
0,2.143591165,20250904141602346,None,10,230.1169891357422,1,18,44,4,-1,-12,-3,-4,1757009762346311092
0,2.143695593,20250904141602346,None,10,230.1169891357422,5,-6,-21,-2,26,10,1,-5,1757009762346421957
0,2.151061296,20250904141602354,None,10,228.45120239257812,-14,-22,-24,-1,1,-11,-4,-13,1757009762353818893
0,2.151170015,20250904141602354,None,10,228.45120239257812,-3,20,-1,13,11,6,1,-3,1757009762353930473
0,2.158641815,20250904141602361,None,10,228.45120239257812,3,0,25,-5,0,-12,-5,0,1757009762361418247
0,2.158750534,20250904141602361,None,10,228.45120239257812,13,-5,-4,3,-2,0,1,4,1757009762361536741
0,2.173582792,20250904141602376,None,10,228.45120239257812,-12,81,6,-5,-7,0,-4,-13,1757009762376349449
0,2.173721552,20250904141602376,None,10,228.45120239257812,22,-26,-26,-8,-4,0,-1,-2,1757009762376458168
0,2.181109428,20250904141602384,None,10,230.59292602539062,-5,0,9,2,4,0,-14,2,1757009762383864164
0,2.181225776,20250904141602384,None,10,230.59292602539062,6,39,37,7,1,-4,3,7,1757009762384000778
0,2.188574552,20250904141602391,None,10,228.45120239257812,-29,-27,-41,-4,2,-5,0,-12,1757009762391382217
0,2.188672781,20250904141602391,None,10,228.45120239257812,15,-14,0,-16,-8,0,-4,14,1757009762391489267
0,2.203617334,20250904141602406,None,11,229.87901306152344,0,-34,-10,-4,2,-11,-5,-3,1757009762406351804
0,2.203737736,20250904141602406,None,11,229.87901306152344,10,42,-12,3,10,12,11,5,1757009762406467676
0,2.2110896110000002,20250904141602414,None,11,229.64105224609375,5,-20,0,3,8,-5,-4,2,1757009762413827419
0,2.211215496,20250904141602414,None,11,229.64105224609375,-1,29,12,-11,-14,-8,0,2,1757009762413946866
0,2.218833923,20250904141602421,None,10,229.403076171875,-13,-31,-11,7,25,-7,-1,-2,1757009762421451568
0,2.218975067,20250904141602421,None,10,229.403076171875,-7,-23,-5,-4,-20,-4,-11,-11,1757009762421604871
0,2.233747244,20250904141602436,None,10,230.1169891357422,-14,-11,-15,-9,7,10,7,-28,1757009762436408519
0,2.233876228,20250904141602436,None,10,230.1169891357422,24,12,5,-2,6,3,-11,1,1757009762436545372
0,2.241341114,20250904141602444,None,11,228.21322631835938,-1,2,5,-3,-8,-3,0,6,1757009762444040298
0,2.241477966,20250904141602444,None,11,228.21322631835938,2,6,33,5,10,19,-2,-7,1757009762444177150
0,2.24886918,20250904141602451,None,11,230.35494995117188,-6,5,15,0,-19,-17,3,-1,1757009762451575040
0,2.248978138,20250904141602451,None,11,230.35494995117188,-3,2,-39,-6,5,3,-18,-8,1757009762451748847
0,2.2639083859999998,20250904141602466,None,10,230.59292602539062,1,-20,8,-6,6,-29,-13,4,1757009762466590881
0,2.264015198,20250904141602466,None,10,230.59292602539062,-4,-2,-9,-7,-10,9,11,-12,1757009762466783761
0,2.2715022559999998,20250904141602474,None,10,228.21322631835938,29,5,1,-1,2,9,11,10,1757009762474066972
0,2.271624088,20250904141602474,None,10,228.21322631835938,-6,-2,-13,0,24,11,1,1,1757009762474281549
0,2.278745889,20250904141602481,None,11,228.21322631835938,8,14,6,-7,-17,-42,-18,7,1757009762481477260
0,2.278854131,20250904141602481,None,11,228.21322631835938,0,12,7,4,22,23,10,1,1757009762481640815
0,2.293922901,20250904141602496,None,10,229.16510009765625,-11,-6,22,-2,-9,13,5,-3,1757009762496601343
0,2.294026136,20250904141602496,None,10,229.16510009765625,-2,-16,-49,-5,24,-12,-8,-19,1757009762496783733
0,2.30140996,20250904141602504,None,10,229.16510009765625,-9,64,53,-9,-12,10,-6,-1,1757009762504075527
0,2.301510811,20250904141602504,None,10,229.16510009765625,3,23,-8,6,17,10,6,5,1757009762504281520
0,2.308954477,20250904141602511,None,10,229.87901306152344,6,23,32,8,-35,-20,4,1,1757009762511652469
0,2.3090517520000002,20250904141602512,None,10,229.87901306152344,-10,-2,-35,1,8,-20,-3,-1,1757009762511845111
0,2.323954582,20250904141602526,None,10,228.45120239257812,0,-28,-14,-4,0,9,3,-1,1757009762526622056
0,2.324072599,20250904141602527,None,10,228.45120239257812,5,-4,19,4,3,8,1,4,1757009762526817321
0,2.33141303,20250904141602534,None,10,230.35494995117188,2,-9,-8,-16,-31,-13,-1,6,1757009762534085988
0,2.33155179,20250904141602534,None,10,230.35494995117188,-3,-17,-29,-4,-4,17,-11,-13,1757009762534298419
0,2.338953256,20250904141602541,None,10,228.45120239257812,-10,19,18,-4,-37,-10,7,-8,1757009762541632413
0,2.339081764,20250904141602542,None,10,228.45120239257812,7,3,11,-13,16,-7,-3,18,1757009762541829824
0,2.353974819,20250904141602556,None,10,228.21322631835938,7,-6,-29,8,13,13,6,10,1757009762556646108
0,2.35412693,20250904141602557,None,10,228.21322631835938,-6,-3,11,-3,-6,-1,-4,17,1757009762556859731
0,2.361499548,20250904141602564,None,10,228.21322631835938,-6,-11,-2,-13,-44,-21,-16,-32,1757009762564148664
0,2.361654281,20250904141602564,None,11,228.21322631835938,14,2,2,5,-2,-1,0,6,1757009762564387083
0,2.368983269,20250904141602571,None,11,228.45120239257812,11,24,1,6,-1,1,2,8,1757009762571663379
0,2.369107008,20250904141602572,None,11,228.45120239257812,6,-11,-11,-4,-2,-1,-3,0,1757009762571861743
0,2.383846283,20250904141602586,None,10,229.16510009765625,-6,-20,-14,2,29,5,7,5,1757009762586580514
0,2.383960008,20250904141602586,None,10,229.16510009765625,-7,-54,-6,-12,-18,-1,0,2,1757009762586766004
0,2.391300201,20250904141602594,None,10,229.87901306152344,9,64,15,4,-7,0,-7,-7,1757009762593984842
0,2.391417742,20250904141602594,None,10,229.87901306152344,38,12,21,16,12,16,10,15,1757009762594165325
0,2.398608684,20250904141602601,None,11,229.87901306152344,-14,4,-22,-12,-28,-33,-17,-7,1757009762601353883
0,2.398718118,20250904141602601,None,11,229.87901306152344,-4,12,25,-4,28,27,8,-12,1757009762601477384
0,2.413687706,20250904141602616,None,10,230.83090209960938,-17,-36,-35,-12,-5,-12,1,9,1757009762616425514
0,2.413809061,20250904141602616,None,10,230.83090209960938,-17,-4,9,6,-2,3,-5,-17,1757009762616561651
0,2.421143532,20250904141602624,None,10,228.45120239257812,30,105,64,7,27,11,4,20,1757009762623902797
0,2.421253681,20250904141602624,None,10,228.45120239257812,0,-24,-13,-7,-11,4,-1,10,1757009762624028682
0,2.428616762,20250904141602631,None,10,230.59292602539062,13,7,-27,8,6,-11,10,3,1757009762631409645
0,2.428715706,20250904141602631,None,10,230.59292602539062,-35,4,16,1,-4,0,-13,-24,1757009762631530284
0,2.443707227,20250904141602646,None,11,228.21322631835938,-23,-8,0,-11,-2,6,1,0,1757009762646419763
0,2.44383049,20250904141602646,None,11,228.21322631835938,0,-16,-15,-13,-8,-6,0,-6,1757009762646577119
0,2.451116562,20250904141602654,None,11,230.35494995117188,11,12,7,7,-11,-2,-4,9,1757009762653845310
0,2.451255321,20250904141602654,None,11,230.35494995117188,-15,-2,0,-8,-12,-32,-7,-12,1757009762653954505
0,2.458638429,20250904141602661,None,10,228.92713928222656,8,4,7,2,-13,-7,-1,7,1757009762661374092
0,2.458754778,20250904141602661,None,10,228.92713928222656,4,7,12,-12,-7,1,3,-10,1757009762661489009
0,2.473562002,20250904141602676,None,11,229.16510009765625,-5,-7,-29,5,6,-3,-1,6,1757009762676341772
0,2.473659754,20250904141602676,None,11,229.16510009765625,5,4,37,10,28,8,1,12,1757009762676435947
0,2.481055259,20250904141602684,None,11,229.16510009765625,-10,-43,-19,-6,-3,5,4,-5,1757009762683782577
0,2.481160164,20250904141602684,None,11,229.16510009765625,-8,34,12,-6,-8,-8,-14,-11,1757009762683869361
0,2.488664627,20250904141602691,None,11,228.92713928222656,13,-8,-22,-7,34,-6,-3,2,1757009762691376447
0,2.488870382,20250904141602691,None,11,228.92713928222656,5,28,16,5,2,-19,13,18,1757009762691511392
0,2.503912925,20250904141602706,None,10,228.45120239257812,-37,-34,-10,-7,-60,-14,-11,-29,1757009762706517219
0,2.504085302,20250904141602707,None,10,228.45120239257812,6,-20,-16,-8,-4,11,0,15,1757009762706769466
0,2.510995865,20250904141602713,None,10,230.83090209960938,17,29,22,5,-5,5,10,3,1757009762713792800
0,2.51107192,20250904141602714,None,10,230.83090209960938,-19,-4,9,21,38,14,0,1,1757009762713898181
0,2.518585682,20250904141602721,None,10,230.83090209960938,-17,-22,-19,-19,-30,-6,-2,-19,1757009762721331357
0,2.518670797,20250904141602721,None,10,230.83090209960938,-10,9,-8,-4,-12,1,2,-21,1757009762721468210
0,2.533472061,20250904141602736,None,10,230.35494995117188,1,53,38,2,8,55,10,26,1757009762736268520
0,2.533524275,20250904141602736,None,10,230.35494995117188,0,-1,15,7,9,-63,-7,-3,1757009762736356019
0,2.541182995,20250904141602744,None,10,228.6891632080078,-39,-53,-31,11,9,11,0,-4,1757009762743840217
0,2.541294813,20250904141602744,None,10,228.6891632080078,-37,35,-3,-4,-3,-27,-10,-12,1757009762743967294
0,2.548443079,20250904141602751,None,10,229.64105224609375,13,-5,26,-18,-23,3,-1,-8,1757009762751276969
0,2.548497915,20250904141602751,None,10,229.64105224609375,-5,2,2,1,-15,-16,6,8,1757009762751378774
0,2.563481331,20250904141602766,None,11,229.403076171875,-11,-23,-13,6,-3,-4,-2,-8,1757009762766307830
0,2.563550949,20250904141602766,None,10,229.403076171875,4,0,20,-10,-12,-28,-5,-4,1757009762766403675
0,2.570982694,20250904141602773,None,10,228.92713928222656,-1,27,-18,-17,-18,-3,4,15,1757009762773767232
0,2.571079731,20250904141602774,None,10,228.92713928222656,12,-19,-9,2,-2,-13,-3,9,1757009762773879766
0,2.578802347,20250904141602781,None,10,230.1169891357422,13,23,65,7,-30,-23,5,7,1757009762781480073
0,2.578925609,20250904141602781,None,10,230.1169891357422,-3,-7,-26,-4,-7,5,1,3,1757009762781646251
0,2.593714475,20250904141602796,None,11,230.35494995117188,9,-16,-24,6,-49,-28,-3,10,1757009762796437263
0,2.593852997,20250904141602796,None,11,230.35494995117188,8,-3,-5,2,-12,-6,5,15,1757009762796581029
0,2.601097107,20250904141602804,None,11,230.35494995117188,10,2,1,4,12,1,-3,-23,1757009762803837299
0,2.601227999,20250904141602804,None,11,230.35494995117188,23,-13,-11,-4,0,6,-11,6,1757009762803947210
0,2.608550548,20250904141602811,None,11,228.45120239257812,7,21,21,-5,13,-3,2,-13,1757009762811328649
0,2.608644485,20250904141602811,None,11,228.45120239257812,-2,-73,-60,-6,-1,1,2,3,1757009762811465263
0,2.623705864,20250904141602826,None,10,228.6891632080078,3,127,85,6,-3,-7,-9,-5,1757009762826314449
0,2.623855829,20250904141602826,None,10,228.6891632080078,-14,-35,3,3,58,11,6,-1,1757009762826464176
0,2.630942344,20250904141602833,None,10,230.1169891357422,7,-24,-28,-8,12,33,4,-2,1757009762833711624
0,2.631049633,20250904141602834,None,10,230.1169891357422,-1,-1,17,7,8,-14,0,16,1757009762833806037
0,2.638493776,20250904141602841,None,11,230.1169891357422,-34,-99,-39,1,6,-1,10,-23,1757009762841250896
0,2.6385793680000003,20250904141602841,None,11,230.1169891357422,9,84,28,-5,-42,8,-6,-7,1757009762841338396
0,2.653574705,20250904141602856,None,10,228.92713928222656,22,-70,-20,-5,5,-24,-10,-7,1757009762856295585
0,2.653716326,20250904141602856,None,10,228.92713928222656,1,73,27,-1,-7,37,8,0,1757009762856403350
0,2.660993337,20250904141602863,None,10,229.64105224609375,-5,-29,-24,-4,-6,-51,-4,-1,1757009762863748550
0,2.661081314,20250904141602864,None,10,229.64105224609375,13,-22,-13,10,12,16,-1,6,1757009762863777399
0,2.6685502530000003,20250904141602871,None,10,228.6891632080078,-7,14,21,-8,-13,21,0,-4,1757009762871305465
0,2.668684244,20250904141602871,None,10,228.6891632080078,19,15,-8,2,15,-16,-3,-3,1757009762871410846
0,2.683820486,20250904141602886,None,11,230.1169891357422,-20,-13,-11,4,9,5,6,-5,1757009762886446475
0,2.6840353009999998,20250904141602887,None,11,230.1169891357422,-3,0,11,1,20,-4,-3,-21,1757009762886601686
0,2.691548586,20250904141602894,None,11,228.6891632080078,5,-37,-1,12,27,23,3,-1,1757009762893886804
0,2.691757917,20250904141602894,None,11,228.6891632080078,57,46,-24,-4,3,-1,6,19,1757009762894018411
0,2.698621273,20250904141602901,None,10,230.59292602539062,-10,-13,27,-8,-22,1,-1,-9,1757009762901386737
0,2.698718309,20250904141602901,None,10,230.59292602539062,4,-9,-28,1,-13,-37,2,5,1757009762901517152
0,2.714109897,20250904141602917,None,11,230.35494995117188,4,0,30,-7,-30,8,-3,-6,1757009762916443109
0,2.7143404479999997,20250904141602917,None,11,230.35494995117188,1,-29,-13,1,-1,-8,-5,2,1757009762916587352
0,2.721457481,20250904141602924,None,11,230.35494995117188,13,55,1,8,15,-8,-4,-1,1757009762923837423
0,2.721660614,20250904141602924,None,11,230.35494995117188,-16,-9,6,6,24,3,-1,0,1757009762923960685
0,2.728812933,20250904141602931,None,11,229.16510009765625,-17,-30,-6,-11,4,30,6,-19,1757009762931426286
0,2.728943348,20250904141602931,None,11,229.16510009765625,-2,21,-15,-2,26,-7,-23,-5,1757009762931598424
0,2.743649959,20250904141602946,None,10,229.87901306152344,3,3,33,5,21,9,3,7,1757009762946363925
0,2.7437641619999997,20250904141602946,None,10,229.87901306152344,5,-12,-5,1,-19,-25,-1,0,1757009762946508884
0,2.751151562,20250904141602954,None,10,228.6891632080078,-11,-21,-14,-8,15,-10,-9,-7,1757009762953896760
0,2.7512307160000002,20250904141602954,None,10,228.6891632080078,26,54,5,20,-4,-18,-1,19,1757009762954018115
0,2.766461134,20250904141602969,None,11,230.59292602539062,-23,-65,0,-7,10,16,2,-3,1757009762969115018
0,2.766643286,20250904141602969,None,11,230.59292602539062,6,79,3,2,-2,22,9,-12,1757009762969424962
0,2.773799419,20250904141602976,None,10,228.21322631835938,0,-13,25,-4,-45,-74,-12,-8,1757009762976478815
0,2.7739012240000003,20250904141602976,None,10,228.21322631835938,4,-29,-13,2,39,7,-24,10,1757009762976643800
0,2.781119585,20250904141602984,None,10,230.83090209960938,-10,-80,-18,5,7,8,-4,1,1757009762983870506
0,2.781222343,20250904141602984,None,10,230.83090209960938,34,75,6,-4,-4,-9,6,7,1757009762983984947
0,2.796172857,20250904141602999,None,11,230.1169891357422,-8,-33,-12,-10,-18,21,8,4,1757009762998898744
0,2.796303034,20250904141602999,None,11,230.1169891357422,-15,-23,-24,-5,16,15,5,6,1757009762999068975
0,2.803803444,20250904141603006,None,11,230.1169891357422,36,4,16,-8,2,-6,8,0,1757009763006546974
0,2.803896665,20250904141603006,None,11,230.1169891357422,-14,-5,-11,5,-19,-35,-17,-15,1757009763006659507
0,2.81144619,20250904141603014,None,10,228.92713928222656,0,11,32,2,-58,0,-10,-10,1757009763014184951
0,2.811564445,20250904141603014,None,10,228.92713928222656,-15,-44,-40,-26,-28,-13,-2,1,1757009763014395952
0,2.826447725,20250904141603029,None,10,229.87901306152344,26,33,2,6,15,1,2,11,1757009763029196262
0,2.8265335560000002,20250904141603029,None,10,229.87901306152344,5,3,-2,-7,-11,1,2,-4,1757009763029386758
0,2.833891153,20250904141603036,None,11,229.16510009765625,8,-8,4,20,45,-2,-16,17,1757009763036687135
0,2.833991766,20250904141603036,None,11,229.16510009765625,-3,-11,-2,-10,-43,-32,3,0,1757009763036847352
0,2.841697216,20250904141603044,None,11,229.16510009765625,-4,-8,-4,2,-18,15,4,5,1757009763044256925
0,2.841846227,20250904141603044,None,11,229.16510009765625,-6,23,-12,-7,47,21,-3,8,1757009763044661521
0,2.856465578,20250904141603059,None,10,228.21322631835938,-64,-45,-12,-2,-11,8,2,-34,1757009763059113025
0,2.8565702440000003,20250904141603059,None,10,228.21322631835938,44,77,64,21,6,-8,7,2,1757009763059312820
0,2.863830328,20250904141603066,None,10,230.59292602539062,-3,-33,-6,7,6,6,2,-3,1757009763066552639
0,2.863928795,20250904141603066,None,10,230.59292602539062,24,-20,-15,3,-7,-8,-7,25,1757009763066692829
0,2.871209621,20250904141603074,None,11,228.45120239257812,-26,-4,-13,-18,18,-2,-9,-23,1757009763073891162
0,2.871363163,20250904141603074,None,11,228.45120239257812,-5,-9,-10,-14,2,-4,-2,-2,1757009763074021816
0,2.886942148,20250904141603089,None,11,229.64105224609375,17,5,-1,3,-4,2,6,2,1757009763089358329
0,2.887144804,20250904141603090,None,11,229.64105224609375,4,-1,13,1,6,-4,3,8,1757009763089565992
0,2.893647432,20250904141603096,None,10,228.21322631835938,1,-35,-14,-11,-19,-17,-5,-3,1757009763096408843
0,2.8937261100000002,20250904141603096,None,10,228.21322631835938,6,47,1,-7,-4,33,0,-15,1757009763096554756
0,2.901115179,20250904141603104,None,10,229.64105224609375,9,-5,3,7,-9,10,18,20,1757009763103864431
0,2.901232958,20250904141603104,None,10,229.64105224609375,-16,-19,-19,-3,-9,-11,-10,-5,1757009763103978395
0,2.916265964,20250904141603119,None,10,228.45120239257812,0,-22,5,-5,3,1,-1,-5,1757009763118883609
0,2.916413069,20250904141603119,None,10,228.45120239257812,0,23,-44,-11,-43,-60,-9,-6,1757009763119013309
0,2.923706054,20250904141603126,None,10,228.45120239257812,11,8,46,6,-4,0,25,6,1757009763126402616
0,2.923846483,20250904141603126,None,10,228.45120239257812,-3,34,1,8,1,11,-1,9,1757009763126527309
0,2.931145668,20250904141603134,None,10,230.1169891357422,-11,-10,-12,8,30,-14,6,-9,1757009763133877277
0,2.931262731,20250904141603134,None,10,230.1169891357422,-9,-21,4,-1,27,9,-12,-12,1757009763133993625
0,2.946205854,20250904141603149,None,10,230.83090209960938,-13,-8,-41,-23,-43,-58,-11,-14,1757009763148888111
0,2.9465909,20250904141603149,None,10,230.83090209960938,0,-2,0,14,-72,15,11,-5,1757009763149035930
0,2.95383048,20250904141603156,None,10,228.6891632080078,23,6,30,16,-23,-16,-19,11,1757009763156443595
0,2.9540123940000003,20250904141603156,None,10,228.6891632080078,16,-13,-17,-13,-36,-12,16,16,1757009763156592845
0,2.961158991,20250904141603164,None,10,228.6891632080078,-1,5,-5,-6,-8,0,-3,3,1757009763163909196
0,2.961246729,20250904141603164,None,10,228.6891632080078,-10,-7,-10,-11,39,28,-2,8,1757009763164036273
0,2.97615695,20250904141603179,None,10,228.45120239257812,51,9,12,9,-5,-3,6,-7,1757009763178894519
0,2.976247072,20250904141603179,None,10,228.45120239257812,-2,-11,-4,28,65,24,0,-4,1757009763179023981
0,2.983626842,20250904141603186,None,10,229.64105224609375,-1,7,3,-8,-26,-6,46,26,1757009763186389684
0,2.9837074279999998,20250904141603186,None,10,229.64105224609375,-14,2,-3,-19,-13,-12,-46,-12,1757009763186505317
0,2.991067648,20250904141603194,None,10,229.64105224609375,-23,-48,-28,13,-29,4,-6,-13,1757009763193828344
0,2.991153002,20250904141603194,None,10,229.64105224609375,-4,55,22,-15,1,1,-4,-3,1757009763193975925
0,3.006133795,20250904141603209,None,10,229.16510009765625,-3,-75,-32,9,3,12,12,5,1757009763208866119
0,3.006242513,20250904141603209,None,10,229.16510009765625,5,80,23,16,-40,-1,5,-1,1757009763208984136
0,3.014027595,20250904141603217,None,10,230.1169891357422,20,6,10,14,12,-9,-2,6,1757009763216597080
0,3.014304876,20250904141603217,None,10,230.1169891357422,-6,-54,-27,-18,-2,-31,-8,-9,1757009763216784954
0,3.021214008,20250904141603224,None,10,228.45120239257812,-8,40,-4,2,27,33,9,-18,1757009763223901033
0,3.021381855,20250904141603224,None,10,228.45120239257812,6,-36,-3,-5,-36,-9,15,10,1757009763224028587
0,3.036151647,20250904141603239,None,10,230.59292602539062,15,-1,-27,0,14,-8,-14,10,1757009763238847017
0,3.036257744,20250904141603239,None,10,230.59292602539062,4,9,41,4,27,-34,-11,-2,1757009763238976955
0,3.043632746,20250904141603246,None,10,228.21322631835938,-14,-18,-5,-5,9,1,2,0,1757009763246351957
0,3.043763399,20250904141603246,None,10,228.21322631835938,34,11,-3,19,44,25,5,9,1757009763246526718
0,3.051141023,20250904141603254,None,10,230.35494995117188,2,-55,11,-15,-28,0,3,2,1757009763253842830
0,3.051253319,20250904141603254,None,10,230.35494995117188,10,50,3,7,-6,-11,21,11,1757009763253970861
0,3.066150903,20250904141603269,None,10,229.87901306152344,19,19,8,4,37,1,-27,8,1757009763268875837
0,3.066261768,20250904141603269,None,10,229.87901306152344,-7,-13,-12,0,6,-6,11,-3,1757009763268997192
0,3.0736718180000002,20250904141603276,None,10,229.16510009765625,-2,8,15,-11,-23,-43,9,24,1757009763276408910
0,3.073776006,20250904141603276,None,10,229.16510009765625,-16,-12,-29,-3,-1,4,-15,-33,1757009763276524782
0,3.081332207,20250904141603284,None,10,229.16510009765625,-42,-10,21,8,3,34,7,-4,1757009763283888578
0,3.081444263,20250904141603284,None,10,229.16510009765625,33,5,-11,2,2,-5,3,20,1757009763284062862
0,3.096237659,20250904141603299,None,10,229.87901306152344,14,-42,-20,-3,46,-4,-3,-10,1757009763298884630
0,3.09646225,20250904141603299,None,10,229.87901306152344,-30,51,-16,6,-7,-6,0,-11,1757009763299050092
0,3.103708267,20250904141603306,None,10,228.45120239257812,2,-13,43,0,-12,-9,-11,-3,1757009763306402444
0,3.103847742,20250904141603306,None,10,228.45120239257812,-23,36,-1,4,-1,12,2,12,1757009763306519746
0,3.111117601,20250904141603314,None,10,230.59292602539062,-18,-27,-31,-5,-3,-20,-28,-10,1757009763313843011
0,3.111238718,20250904141603314,None,10,230.59292602539062,-12,-20,-6,-18,-56,-27,2,-3,1757009763313972473
0,3.126154899,20250904141603329,None,10,228.45120239257812,2,-4,-8,10,21,-28,-10,-14,1757009763328909397
0,3.126308918,20250904141603329,None,10,228.45120239257812,-12,12,9,15,21,23,8,-9,1757009763329036712
0,3.133718729,20250904141603336,None,10,230.35494995117188,-10,-11,-5,-10,-9,19,-6,-13,1757009763336421966
0,3.133870601,20250904141603336,None,10,230.35494995117188,22,72,6,-7,-16,-18,4,34,1757009763336552381
0,3.141167164,20250904141603344,None,10,228.21322631835938,5,4,32,6,-14,12,5,-13,1757009763343925952
0,3.14129734,20250904141603344,None,10,228.21322631835938,-30,-30,-9,-4,-19,-6,-7,-27,1757009763344040632
0,3.156311512,20250904141603359,None,10,228.6891632080078,1,-26,-24,-6,20,7,1,6,1757009763358926773
0,3.156485319,20250904141603359,None,10,228.6891632080078,-6,24,43,19,-6,7,9,-3,1757009763359077930
0,3.163605451,20250904141603366,None,10,228.6891632080078,0,-20,-18,-4,-2,-13,-11,4,1757009763366352558
0,3.163733959,20250904141603366,None,10,228.6891632080078,7,0,-16,-14,-3,4,-12,-11,1757009763366477727
0,3.171096802,20250904141603374,None,10,229.403076171875,-11,-96,-21,2,-35,-20,-45,-12,1757009763373835563
0,3.171217203,20250904141603374,None,10,229.403076171875,3,54,23,-19,-4,-10,-31,8,1757009763373970508
0,3.186226129,20250904141603389,None,10,228.6891632080078,-20,27,21,6,-21,14,-14,-10,1757009763388925552
0,3.1863725179999998,20250904141603389,None,10,228.6891632080078,-65,-52,-36,14,46,-25,2,-22,1757009763389069318
0,3.193653822,20250904141603396,None,10,230.1169891357422,15,-28,10,4,5,-22,13,5,1757009763396391630
0,3.193763733,20250904141603396,None,10,230.1169891357422,10,47,1,3,-69,8,13,15,1757009763396512985
0,3.201205015,20250904141603404,None,10,230.1169891357422,1,-62,-23,-5,15,-19,2,10,1757009763403894901
0,3.201352119,20250904141603404,None,10,230.1169891357422,-1,41,1,-10,-42,-13,3,4,1757009763404031991
0,3.216217041,20250904141603419,None,10,230.35494995117188,5,-13,2,5,36,1,-4,-14,1757009763418896198
0,3.216384172,20250904141603419,None,10,230.35494995117188,-6,-9,-2,12,52,21,-11,7,1757009763419057607
0,3.223697185,20250904141603426,None,10,228.45120239257812,-5,-11,-12,-12,-5,-58,10,8,1757009763426423072
0,3.223802805,20250904141603426,None,10,228.45120239257812,-24,-2,-5,-4,-42,26,9,-6,1757009763426558017
0,3.231140375,20250904141603434,None,10,230.35494995117188,-22,22,40,12,8,-2,0,-12,1757009763433832883
0,3.231265068,20250904141603434,None,10,230.35494995117188,-8,-28,-22,-5,-45,-28,-3,11,1757009763433970689
0,3.246225595,20250904141603449,None,10,228.92713928222656,2,16,6,8,13,10,5,1,1757009763448880434
0,3.246385097,20250904141603449,None,10,228.92713928222656,0,15,2,11,41,18,0,-3,1757009763449009895
0,3.253729105,20250904141603456,None,10,229.403076171875,15,-7,13,2,-35,-22,1,9,1757009763456424236
0,3.253858566,20250904141603456,None,10,229.403076171875,-15,-49,-34,-25,-9,-27,-5,2,1757009763456550836
0,3.261239528,20250904141603464,None,10,229.87901306152344,12,86,26,7,-6,13,7,12,1757009763463920116
0,3.261399746,20250904141603464,None,10,229.87901306152344,-1,-13,-12,2,7,-4,-13,-16,1757009763464052200
0,3.276242971,20250904141603479,None,10,230.59292602539062,-48,-69,-18,-14,-15,-23,-10,-11,1757009763478886842
0,3.276440143,20250904141603479,None,10,230.59292602539062,24,89,23,9,27,17,1,-7,1757009763479024171
0,3.283654928,20250904141603486,None,10,230.59292602539062,-5,-26,2,-1,42,-2,2,3,1757009763486321210
0,3.283782244,20250904141603486,None,10,230.59292602539062,9,-2,9,13,41,20,3,9,1757009763486442089
0,3.291150808,20250904141603494,None,10,228.21322631835938,1,-15,-17,-13,-87,-31,-3,-2,1757009763493862867
0,3.291291475,20250904141603494,None,10,228.21322631835938,18,22,0,4,0,10,27,18,1757009763494015932
0,3.30624938,20250904141603509,None,10,228.21322631835938,-1,-9,-6,-5,-30,4,5,1,1757009763508915424
0,3.3064363,20250904141603509,None,10,228.21322631835938,-8,-7,3,6,6,-37,8,3,1757009763509051561
0,3.313710212,20250904141603516,None,10,230.1169891357422,42,-24,10,1,13,-5,-19,34,1757009763516396999
0,3.313846111,20250904141603516,None,10,230.1169891357422,11,52,22,8,-23,-12,-3,-15,1757009763516521692
0,3.321171283,20250904141603524,None,10,230.1169891357422,-22,-22,-30,-9,10,8,-14,-12,1757009763523783922
0,3.321296215,20250904141603524,None,10,230.1169891357422,-9,-13,9,13,-18,22,17,-2,1757009763523902893
0,3.33616066,20250904141603539,None,10,229.64105224609375,7,-3,3,-1,-50,-3,-4,-8,1757009763538838624
0,3.336337805,20250904141603539,None,10,229.64105224609375,-2,98,13,4,22,5,-1,-12,1757009763538958072
0,3.343650579,20250904141603546,None,10,229.64105224609375,40,-30,-13,3,-10,-5,0,37,1757009763546342611
0,3.343807697,20250904141603546,None,10,229.64105224609375,15,1,37,11,-22,-44,-6,-4,1757009763546463251
0,3.351139545,20250904141603554,None,10,229.403076171875,0,-77,-27,-8,-16,7,-8,2,1757009763553831577
0,3.351271629,20250904141603554,None,10,229.403076171875,6,67,13,-16,-118,-9,48,13,1757009763553972005
0,3.366151094,20250904141603569,None,10,230.59292602539062,-5,-28,-2,9,9,6,-18,-13,1757009763568872213
0,3.366266966,20250904141603569,None,10,230.59292602539062,8,6,3,-10,1,31,-4,-3,1757009763569005012
0,3.373946905,20250904141603576,None,10,228.45120239257812,24,-11,-12,7,-14,21,6,17,1757009763576586246
0,3.374094248,20250904141603577,None,10,228.45120239257812,-6,-24,-11,-13,43,4,3,-1,1757009763576762199
0,3.381332636,20250904141603584,None,10,230.83090209960938,-3,0,-29,-13,12,11,7,5,1757009763583954572
0,3.381473303,20250904141603584,None,10,230.83090209960938,17,17,31,13,5,-9,-4,-6,1757009763584108114
0,3.396321296,20250904141603599,None,10,228.21322631835938,2,4,20,10,21,-20,-8,-1,1757009763598927497
0,3.396481752,20250904141603599,None,10,228.21322631835938,-7,-8,-22,-4,20,-12,-8,-2,1757009763599081277
0,3.403748035,20250904141603606,None,10,230.35494995117188,-9,-7,-1,-3,11,-4,-3,-10,1757009763606457233
0,3.403896808,20250904141603606,None,10,230.35494995117188,25,-10,-17,-10,8,17,2,22,1757009763606601715
0,3.41879797,20250904141603621,None,10,229.64105224609375,4,-1,-9,19,9,0,2,-1,1757009763621426343
0,3.419029951,20250904141603622,None,10,229.64105224609375,-5,-4,24,13,12,-22,-8,-10,1757009763621575832
0,3.426256656,20250904141603629,None,10,229.403076171875,2,10,-7,-5,18,9,4,10,1757009763628956556
0,3.426419973,20250904141603629,None,10,229.403076171875,-55,20,-17,-4,0,6,1,-16,1757009763629102230
0,3.433840275,20250904141603636,None,10,228.92713928222656,6,-19,12,-3,-20,-14,-5,16,1757009763636485815
0,3.433997154,20250904141603636,None,10,228.92713928222656,-26,-21,-32,-10,18,-4,-5,-5,1757009763636649370
0,3.441242933,20250904141603644,None,10,228.92713928222656,6,-3,2,-8,25,-26,-16,-1,1757009763643949508
0,3.44150424,20250904141603644,None,10,228.92713928222656,-2,14,2,15,10,-18,13,-8,1757009763644092321
0,3.456360101,20250904141603659,None,10,228.45120239257812,-7,-39,22,-2,-20,8,13,-3,1757009763658967733
0,3.456512689,20250904141603659,None,10,228.45120239257812,10,32,2,-4,-18,21,-1,0,1757009763659121513
0,3.463798523,20250904141603666,None,10,230.83090209960938,12,19,10,4,46,20,30,19,1757009763666438579
0,3.463988781,20250904141603666,None,10,230.83090209960938,-7,-30,-11,2,-4,-7,-59,-15,1757009763666597604
0,3.471290827,20250904141603674,None,10,228.21322631835938,5,-5,-10,-7,13,-6,-18,4,1757009763673898458
0,3.471465349,20250904141603674,None,10,228.21322631835938,-6,-9,-9,-9,-23,-14,-5,-17,1757009763674063920
0,3.486314773,20250904141603689,None,10,230.35494995117188,21,13,50,23,12,-7,-1,37,1757009763688911437
0,3.486466884,20250904141603689,None,10,230.35494995117188,-5,-16,-15,-4,-24,-5,9,-11,1757009763689063072
0,3.493868828,20250904141603696,None,10,228.6891632080078,7,20,-11,-12,-24,-3,0,3,1757009763696505784
0,3.494033336,20250904141603696,None,10,228.6891632080078,-4,-7,-5,-7,7,-17,-1,3,1757009763696678876
0,3.5012719629999998,20250904141603704,None,10,229.87901306152344,38,7,5,12,18,5,-2,-9,1757009763703927516
0,3.501430273,20250904141603704,None,10,229.87901306152344,-15,-44,4,-18,24,13,1,2,1757009763704079389
0,3.516450405,20250904141603719,None,10,229.16510009765625,-4,32,2,4,-3,-16,2,-2,1757009763718912601
0,3.516667127,20250904141603719,None,10,229.16510009765625,-10,-9,0,-11,-68,-14,-20,-12,1757009763719094276
0,3.523692846,20250904141603726,None,10,229.403076171875,-36,-16,-9,-10,-10,-25,-40,-25,1757009763726356267
0,3.523835897,20250904141603726,None,10,229.403076171875,37,23,4,8,9,13,8,4,1757009763726498603
0,3.531382561,20250904141603734,None,10,230.1169891357422,21,-11,-5,-1,14,-2,-1,24,1757009763733961820
0,3.531615019,20250904141603734,None,10,230.1169891357422,0,2,-5,22,43,15,11,-3,1757009763734112024
0,3.54624176,20250904141603749,None,10,230.59292602539062,-56,10,17,-21,-1,-15,5,5,1757009763748914957
0,3.546432972,20250904141603749,None,10,230.59292602539062,-5,7,6,4,-13,-3,-1,-33,1757009763749057531
0,3.5536773200000003,20250904141603756,None,10,228.21322631835938,-1,47,9,2,13,-14,-5,-1,1757009763756395101
0,3.55378437,20250904141603756,None,10,228.21322631835938,12,37,5,-8,8,9,10,3,1757009763756531238
0,3.56135726,20250904141603764,None,10,230.35494995117188,-13,-8,-8,-5,-41,-41,-11,-9,1757009763763938188
0,3.561490774,20250904141603764,None,10,230.35494995117188,2,-20,-5,-8,15,-30,-5,12,1757009763764084577
0,3.5761897559999998,20250904141603779,None,10,228.21322631835938,-14,6,6,-6,3,44,4,-14,1757009763778883218
0,3.576343536,20250904141603779,None,10,228.21322631835938,-7,0,-17,-1,-15,22,4,-14,1757009763779031515
0,3.583609342,20250904141603786,None,10,230.1169891357422,14,-3,8,-9,-23,-7,5,7,1757009763786373138
0,3.583710909,20250904141603786,None,10,230.1169891357422,-10,-4,-18,4,-6,16,1,-12,1757009763786545753
0,3.591154337,20250904141603794,None,10,229.403076171875,35,3,12,-2,15,-11,24,14,1757009763793872117
0,3.591269016,20250904141603794,None,10,229.403076171875,-9,32,1,6,-5,-9,-15,-21,1757009763794028759
0,3.606208086,20250904141603809,None,10,229.403076171875,-2,-16,-2,3,-14,3,8,6,1757009763808923959
0,3.606341839,20250904141603809,None,10,229.403076171875,-12,15,5,-10,-4,23,7,-17,1757009763809070348
0,3.613662004,20250904141603816,None,10,230.35494995117188,23,4,-8,-7,-19,4,-3,9,1757009763816412687
0,3.61373949,20250904141603816,None,10,230.35494995117188,-1,-12,-7,-7,-3,-8,-1,-9,1757009763816551446
0,3.621165275,20250904141603824,None,10,228.92713928222656,-3,-12,-6,0,-6,-6,-7,4,1757009763823892116
0,3.621262789,20250904141603824,None,10,228.92713928222656,10,29,15,18,50,14,4,-2,1757009763824032545
0,3.6362257,20250904141603839,None,10,228.45120239257812,-5,-10,3,8,8,-7,-14,-3,1757009763838934183
0,3.636363983,20250904141603839,None,10,228.45120239257812,-43,-9,-13,-11,-9,51,4,-6,1757009763839080810
0,3.643685817,20250904141603846,None,10,228.45120239257812,3,-25,2,3,70,-1,-6,-7,1757009763846452236
0,3.643765449,20250904141603846,None,10,228.45120239257812,8,15,9,8,-24,5,7,3,1757009763846590518
0,3.651321888,20250904141603854,None,10,230.35494995117188,21,1,-4,-2,-21,7,12,40,1757009763853949069
0,3.6514604090000002,20250904141603854,None,10,230.35494995117188,18,38,-1,5,-15,21,6,0,1757009763854121685
0,3.666240453,20250904141603869,None,10,230.1169891357422,-41,-26,-18,-8,36,-5,-5,-11,1757009763868927955
0,3.6663773060000002,20250904141603869,None,10,230.1169891357422,3,1,24,4,-2,-28,36,11,1757009763869089365
0,3.673683166,20250904141603876,None,10,229.16510009765625,-5,-11,-2,-5,-7,21,-15,-8,1757009763876409292
0,3.673792362,20250904141603876,None,10,229.16510009765625,-19,17,-6,-5,-11,-5,-13,-19,1757009763876552343
0,3.688961267,20250904141603891,None,10,229.16510009765625,-10,-22,-15,-10,-13,-17,-13,-10,1757009763891644239
0,3.689664602,20250904141603892,None,10,229.16510009765625,9,0,14,2,-8,-18,-28,-6,1757009763891813278
0,3.69635272,20250904141603899,None,10,229.64105224609375,27,-9,-19,-6,44,28,7,0,1757009763898775577
0,3.696514606,20250904141603899,None,10,229.64105224609375,-3,-1,-12,1,18,2,17,-2,1757009763898874282
0,3.704107046,20250904141603907,None,10,229.16510009765625,-3,12,18,13,-16,-64,-15,4,1757009763906393051
0,3.7043516629999997,20250904141603907,None,10,229.16510009765625,-7,9,22,13,5,18,8,-6,1757009763906524181
0,3.7192397120000003,20250904141603922,None,10,228.21322631835938,15,-2,-11,4,-4,-31,-3,6,1757009763921502113
0,3.719504595,20250904141603922,None,10,228.21322631835938,6,6,14,19,34,68,21,-1,1757009763921648740
0,3.726531505,20250904141603929,None,10,228.21322631835938,3,-15,-19,-13,-4,-48,-9,-9,1757009763928848981
0,3.726756572,20250904141603929,None,10,228.21322631835938,2,14,4,-5,4,-2,-38,-5,1757009763928961753
0,3.734248876,20250904141603937,None,10,230.1169891357422,-3,1,10,6,-2,-2,11,7,1757009763936416864
0,3.734528065,20250904141603937,None,10,230.1169891357422,-6,66,12,4,-26,8,-5,-13,1757009763936544179
0,3.74930501,20250904141603952,None,10,230.59292602539062,1,-5,-9,-16,9,-4,-5,-3,1757009763951574563
0,3.749527454,20250904141603952,None,10,230.59292602539062,2,-45,-1,4,-69,-33,-4,1,1757009763951708555
0,3.75655961,20250904141603959,None,10,228.92713928222656,4,39,7,-3,12,10,-7,0,1757009763958826541
0,3.756761789,20250904141603959,None,10,228.92713928222656,0,-8,6,2,7,13,15,5,1757009763958935499
0,3.7640817159999997,20250904141603967,None,10,228.92713928222656,-5,-6,13,-3,-34,-24,-4,-4,1757009763966352701
0,3.764328241,20250904141603967,None,10,228.92713928222656,-6,4,4,19,3,-2,-1,13,1757009763966474771
0,3.779238701,20250904141603982,None,10,229.403076171875,1,1,-13,-17,8,5,-6,-18,1757009763981495141
0,3.779587745,20250904141603982,None,10,229.403076171875,1,-15,-5,-12,3,-1,-6,19,1757009763981653928
0,3.786663532,20250904141603989,None,10,228.92713928222656,4,6,-5,13,18,22,27,1,1757009763988917350
0,3.786880731,20250904141603989,None,10,228.92713928222656,-26,-2,15,8,-28,2,-8,-14,1757009763989053487
0,3.794245481,20250904141603997,None,10,230.35494995117188,-40,-14,-8,-1,0,5,-6,-9,1757009763996379137
0,3.794492006,20250904141603997,None,10,230.35494995117188,-18,0,3,4,9,-37,-15,-1,1757009763996589422
0,3.809000253,20250904141604011,None,10,228.6891632080078,2,-9,-16,-10,-10,27,9,-10,1757009764011352062
0,3.809229851,20250904141604012,None,10,228.6891632080078,14,18,0,-8,-10,-18,-10,26,1757009764011476993
0,3.816534519,20250904141604019,None,10,230.59292602539062,13,12,19,0,-18,-3,-8,-28,1757009764018822431
0,3.816812277,20250904141604019,None,10,230.59292602539062,-4,0,-4,2,0,-8,-3,-9,1757009764018929719
0,3.8240621089999998,20250904141604027,None,10,228.45120239257812,7,-12,-12,1,-14,-12,4,4,1757009764026361703
0,3.82431674,20250904141604027,None,10,228.45120239257812,-20,0,13,4,-1,-45,-20,-11,1757009764026476383
0,3.8391444679999998,20250904141604042,None,10,230.59292602539062,-4,-37,-17,-11,-1,26,93,9,1757009764041452884
0,3.839446306,20250904141604042,None,10,228.92713928222656,-3,-14,-12,1,-10,8,-37,-9,1757009764041589498
0,3.846525669,20250904141604049,None,10,228.92713928222656,-12,24,-3,-27,-52,-35,-16,-11,1757009764048854351
0,3.846903801,20250904141604049,None,10,228.92713928222656,16,7,-15,5,11,-9,-2,-9,1757009764048974990
0,3.85396719,20250904141604056,None,10,229.64105224609375,30,17,33,15,20,5,3,18,1757009764056353569
0,3.854235172,20250904141604057,None,10,229.64105224609375,-3,-14,-8,3,-32,5,5,-4,1757009764056480169
0,3.869098902,20250904141604072,None,10,228.92713928222656,2,13,4,13,29,4,-37,3,1757009764071405410
0,3.8694627280000002,20250904141604072,None,10,228.92713928222656,-12,-19,-19,-18,-9,13,24,5,1757009764071526050
0,3.876552582,20250904141604079,None,10,228.92713928222656,20,-2,-6,3,27,-4,36,-1,1757009764078825235
0,3.876853704,20250904141604079,None,10,230.35494995117188,-6,-16,-2,-5,8,-8,-60,-7,1757009764078929185
0,3.884037018,20250904141604087,None,10,230.35494995117188,-4,-2,15,-6,-14,-7,-15,-8,1757009764086347103
0,3.884330272,20250904141604087,None,10,228.21322631835938,21,22,-20,-14,-5,26,10,25,1757009764086458206
0,3.899086237,20250904141604102,None,10,230.1169891357422,9,9,7,30,17,5,6,-2,1757009764101393938
0,3.899359941,20250904141604102,None,10,230.1169891357422,-17,10,46,7,12,1,-3,-11,1757009764101514816
0,3.906604767,20250904141604109,None,10,228.6891632080078,-13,-15,-15,-8,11,-4,6,8,1757009764108878612
0,3.906837463,20250904141604109,None,10,228.6891632080078,-4,-15,-31,-5,-19,-23,-6,-12,1757009764108986139
0,3.913638353,20250904141604116,None,10,230.59292602539062,-11,-1,11,7,13,3,0,2,1757009764116349458
0,3.913779735,20250904141604116,None,10,230.59292602539062,-12,10,2,-3,1,-3,-4,-9,1757009764116486310
0,3.928668499,20250904141604131,None,10,228.45120239257812,-36,-61,-8,-5,83,5,1,-6,1757009764131382942
0,3.928798914,20250904141604131,None,10,228.45120239257812,19,71,13,-3,-46,64,6,7,1757009764131506204
0,3.936475277,20250904141604139,None,10,229.87901306152344,-14,-31,-6,5,-8,-19,-9,-3,1757009764138850450
0,3.936703205,20250904141604139,None,10,229.87901306152344,-3,-19,5,5,-13,38,17,-5,1757009764138977289
0,3.943629741,20250904141604146,None,10,229.64105224609375,8,21,-9,-11,13,-26,-17,-4,1757009764146353960
0,3.943763494,20250904141604146,None,10,229.64105224609375,4,-24,6,-7,4,8,6,7,1757009764146486520
0,3.959148168,20250904141604162,None,10,230.1169891357422,2,1,4,3,8,5,4,10,1757009764161492586
0,3.959434271,20250904141604162,None,10,230.1169891357422,-22,-14,-5,-6,-10,-4,-14,-18,1757009764161644458
0,3.966253042,20250904141604169,None,10,230.1169891357422,-24,-8,-4,-12,-2,37,1,-13,1757009764168915748
0,3.9664165970000003,20250904141604169,None,10,230.1169891357422,-12,0,-25,2,8,-12,-1,-24,1757009764169057369
0,3.9737968439999998,20250904141604176,None,10,228.21322631835938,22,11,39,4,-7,-11,-38,4,1757009764176512718
0,3.973886251,20250904141604176,None,10,228.21322631835938,1,8,8,12,-10,-24,-18,-4,1757009764176668882
0,3.988788843,20250904141604191,None,10,228.21322631835938,-9,-10,-8,-17,13,9,12,3,1757009764191488265
0,3.988930702,20250904141604191,None,10,228.21322631835938,4,-11,-31,14,0,2,7,4,1757009764191676378
0,3.9963212009999998,20250904141604199,None,10,230.59292602539062,26,-8,40,3,14,-3,0,5,1757009764198850154
0,3.996478557,20250904141604199,None,10,230.59292602539062,2,46,-15,-5,3,-37,6,18,1757009764198961257
0,4.019673347,20250904141604222,None,10,229.87901306152344,4,14,17,5,-11,-2,-9,-1,1757009764222287654
0,4.01984334,20250904141604222,None,10,229.87901306152344,-19,-21,-36,-10,-4,33,5,-7,1757009764222489118
0,4.020009756,20250904141604222,None,10,229.87901306152344,9,-5,22,14,22,2,8,4,1757009764222823858
0,4.020094156,20250904141604223,None,10,229.87901306152344,-18,-7,3,11,-12,-23,25,14,1757009764222930669
0,4.026110649,20250904141604229,None,10,229.403076171875,23,-1,-8,-17,-14,-21,-21,-24,1757009764228834152
0,4.026239156,20250904141604229,None,10,229.403076171875,7,-12,-14,-6,9,-26,-10,-2,1757009764228946924
0,4.033693313,20250904141604236,None,10,229.403076171875,8,-32,-9,-1,2,0,3,13,1757009764236400365
0,4.033819437,20250904141604236,None,10,229.403076171875,-2,5,15,4,-40,-8,6,-5,1757009764236561059
0,4.048803806,20250904141604251,None,10,229.87901306152344,6,32,7,6,8,-2,-4,0,1757009764251491069
0,4.048932552,20250904141604251,None,10,229.87901306152344,2,-24,0,-8,-15,3,-4,8,1757009764251678466
0,4.056064844,20250904141604259,None,10,228.45120239257812,11,19,14,12,-11,-6,3,-5,1757009764258821964
0,4.056205749,20250904141604259,None,10,228.45120239257812,-51,-24,-13,-2,6,34,-16,-16,1757009764258934974
0,4.063825369,20250904141604266,None,10,230.1169891357422,1,-1,1,-9,-30,-14,7,34,1757009764266491413
0,4.06395936,20250904141604266,None,10,230.1169891357422,13,73,6,-17,2,2,-3,-21,1757009764266695976
0,4.078725576,20250904141604281,None,10,230.59292602539062,11,-6,11,20,1,-20,-3,-6,1757009764281435728
0,4.078875541,20250904141604281,None,10,230.59292602539062,-3,-17,-10,-7,1,-15,-2,10,1757009764281577587
0,4.086116075,20250904141604289,None,10,230.59292602539062,-28,9,-33,-7,-27,-51,-1,-9,1757009764288882255
0,4.086230278,20250904141604289,None,10,230.59292602539062,2,8,55,7,2,41,13,4,1757009764289002656
0,4.093640327,20250904141604296,None,10,228.6891632080078,9,15,8,18,-18,-2,93,20,1757009764296415328
0,4.093753338,20250904141604296,None,10,228.6891632080078,-20,-17,-7,2,28,3,-56,-12,1757009764296547889
0,4.10889411,20250904141604311,None,10,229.16510009765625,-1,-17,-43,-17,43,26,-4,-7,1757009764311587095
0,4.109028101,20250904141604311,None,10,229.16510009765625,7,-11,46,16,-40,-4,0,2,1757009764311805725
0,4.116106033,20250904141604319,None,10,229.403076171875,18,16,-7,0,10,31,22,3,1757009764318851470
0,4.116203785,20250904141604319,None,10,229.403076171875,13,16,2,1,49,-11,-12,27,1757009764318996429
0,4.123661279,20250904141604326,None,10,229.403076171875,-22,-10,1,17,23,-15,-6,-28,1757009764326442480
0,4.123761654,20250904141604326,None,10,229.403076171875,-31,-55,-19,-6,-4,27,10,-3,1757009764326571464
0,4.138639927,20250904141604341,None,10,228.6891632080078,42,56,12,-8,-17,4,-1,22,1757009764341412067
0,4.138772249,20250904141604341,None,10,228.6891632080078,-14,-21,3,12,79,12,16,-5,1757009764341547727
0,4.146098375,20250904141604349,None,10,230.35494995117188,-13,-28,-29,7,43,-7,-33,-7,1757009764348881721
0,4.146635294,20250904141604349,None,10,230.35494995117188,16,-3,28,-11,-32,-12,11,-21,1757009764348996400
0,4.161504745,20250904141604364,None,10,230.1169891357422,1,58,13,2,30,21,-1,-7,1757009764363870620
0,4.161599874,20250904141604364,None,10,230.1169891357422,-9,-23,-2,4,25,13,6,-5,1757009764363994836
0,4.169180393,20250904141604372,None,10,230.1169891357422,-2,-11,-9,-14,-40,4,1,-2,1757009764371455907
0,4.169422626,20250904141604372,None,10,230.1169891357422,7,-7,-8,11,29,-10,-17,-4,1757009764371575355
0,4.176532984,20250904141604379,None,10,228.6891632080078,11,7,3,9,-35,-47,9,7,1757009764378810644
0,4.176733255,20250904141604379,None,10,228.6891632080078,-50,-24,-14,-7,-54,-15,-6,-13,1757009764378914356
0,4.184055567,20250904141604387,None,10,229.87901306152344,-7,-1,-13,-3,2,14,-7,-10,1757009764386348962
0,4.184257507,20250904141604387,None,10,229.87901306152344,12,0,26,18,20,33,20,2,1757009764386483907
0,4.198887586,20250904141604401,None,10,229.87901306152344,28,1,-4,-2,-4,-20,-6,23,1757009764401405334
0,4.199133634,20250904141604402,None,10,229.87901306152344,-11,14,-20,-13,-9,-12,-6,3,1757009764401547431
0,4.206371069,20250904141604409,None,10,229.87901306152344,14,6,12,-7,8,9,53,2,1757009764408835411
0,4.206646919,20250904141604409,None,10,229.87901306152344,19,-43,-11,4,37,38,-23,11,1757009764408959150
0,4.221356392,20250904141604424,None,10,228.92713928222656,-12,-75,-35,1,-9,-17,-6,-8,1757009764423858642
0,4.22156167,20250904141604424,None,10,228.92713928222656,15,127,38,-2,41,7,4,-2,1757009764423991918
0,4.228905201,20250904141604431,None,10,230.1169891357422,31,-36,6,-5,18,30,-1,16,1757009764431450366
0,4.229092121,20250904141604432,None,10,230.1169891357422,-10,-12,-16,1,-16,-21,4,4,1757009764431589126
0,4.236262798,20250904141604439,None,10,228.21322631835938,-6,-4,35,4,17,13,-13,18,1757009764438852071
0,4.236482143,20250904141604439,None,10,228.21322631835938,5,-22,-31,1,2,-7,7,-11,1757009764439005136
0,4.243758917,20250904141604446,None,10,228.21322631835938,-5,12,47,2,-26,7,1,4,1757009764446357727
0,4.243947267,20250904141604446,None,10,228.21322631835938,-4,17,-3,0,-17,1,0,-23,1757009764446541547
0,4.259151935,20250904141604462,None,10,228.6891632080078,-8,-10,-6,5,-26,-10,-8,-4,1757009764461451053
0,4.259589433,20250904141604462,None,10,228.6891632080078,3,-16,-20,0,-5,19,75,1,1757009764461600780
0,4.266563892,20250904141604469,None,10,230.1169891357422,1,3,8,-4,83,54,-58,-8,1757009764468852043
0,4.266788959,20250904141604469,None,10,230.1169891357422,-6,-3,-9,-9,-2,-23,-2,-1,1757009764468974828
0,4.289842844,20250904141604492,None,10,229.87901306152344,10,13,24,16,-27,-7,15,9,1757009764492095708
0,4.290053367,20250904141604493,None,10,229.87901306152344,14,-3,14,-3,8,3,-2,14,1757009764492251873
0,4.290446758,20250904141604493,None,10,229.64105224609375,-7,-40,-28,-3,40,-15,2,-6,1757009764492797613
0,4.290640831,20250904141604493,None,10,229.64105224609375,2,54,30,10,-26,-6,-2,-2,1757009764492909669
0,4.296596288,20250904141604499,None,10,229.64105224609375,-5,6,-3,-7,-3,-21,-5,2,1757009764498889684
0,4.296866178,20250904141604499,None,10,229.64105224609375,32,-19,-19,-11,-31,-29,19,39,1757009764499026775
0,4.304184913,20250904141604507,None,10,228.6891632080078,8,25,3,-3,-19,22,-8,-10,1757009764506488561
0,4.304427862,20250904141604507,None,10,228.6891632080078,2,13,52,21,27,-13,-56,-20,1757009764506621360
0,4.318855762,20250904141604521,None,10,230.35494995117188,-6,39,-4,2,-4,-8,-15,-7,1757009764521446943
0,4.319033623,20250904141604522,None,10,230.35494995117188,-14,-29,-15,-3,-46,-26,10,6,1757009764521605491
0,4.326303005,20250904141604529,None,10,228.45120239257812,-16,-4,3,0,-10,-5,-5,-1,1757009764528897285
0,4.32648015,20250904141604529,None,10,228.45120239257812,-9,-24,-15,2,-14,15,11,0,1757009764529066562
0,4.341391802,20250904141604544,None,10,228.45120239257812,25,22,17,7,39,38,2,-15,1757009764543951272
0,4.341553926,20250904141604544,None,10,228.45120239257812,-3,-11,-9,-15,-8,11,8,6,1757009764544109582
0,4.348796129,20250904141604551,None,10,230.35494995117188,17,47,13,5,41,17,-5,1,1757009764551463603
0,4.348917007,20250904141604551,None,10,230.35494995117188,18,25,25,4,19,42,11,13,1757009764551655054
0,4.356091022,20250904141604559,None,10,228.6891632080078,10,-31,-38,-3,5,-36,6,27,1757009764558857917
0,4.356213569,20250904141604559,None,10,228.6891632080078,-16,-22,28,-2,17,9,14,-1,1757009764558979511
0,4.363818884,20250904141604566,None,10,228.6891632080078,-1,-27,-9,-3,-14,8,-8,-7,1757009764566512346
0,4.363992929,20250904141604566,None,10,228.6891632080078,-5,-13,-21,3,-10,-8,2,2,1757009764566682338
0,4.378826141,20250904141604581,None,10,229.403076171875,-12,50,12,-1,-21,-24,-33,-13,1757009764581492662
0,4.378993749,20250904141604581,None,10,229.403076171875,-6,-19,-10,2,16,-10,35,12,1757009764581639528
0,4.386136532,20250904141604589,None,10,228.92713928222656,-14,-2,15,-21,-4,20,8,1,1757009764588842868
0,4.386266708,20250904141604589,None,10,228.92713928222656,-11,-23,-13,11,-16,-22,-2,-19,1757009764588983774
0,4.4011693,20250904141604604,None,10,228.6891632080078,4,13,25,13,-29,-12,-4,-7,1757009764603887796
0,4.401324987,20250904141604604,None,10,228.6891632080078,-2,-11,-3,25,4,4,-62,-3,1757009764604019403
0,4.408704519,20250904141604611,None,10,228.6891632080078,12,-7,-18,-16,-8,2,-14,-1,1757009764611433744
0,4.408847809,20250904141604611,None,10,228.6891632080078,-22,-24,-17,-21,12,12,65,-4,1757009764611569881
0,4.416325092,20250904141604619,None,10,230.59292602539062,-31,10,-6,-1,-15,-5,-22,-5,1757009764618918180
0,4.416539907,20250904141604619,None,10,230.59292602539062,8,-11,12,6,23,24,1,0,1757009764619065046
0,4.42370677,20250904141604626,None,10,228.45120239257812,-3,12,-12,-3,-14,8,-1,-21,1757009764626373529
0,4.423826694,20250904141604626,None,10,228.45120239257812,-14,7,13,17,3,-2,0,-16,1757009764626487255
0,4.438894272,20250904141604641,None,10,228.6891632080078,-6,-28,-12,-11,-21,-34,-5,3,1757009764641403913
0,4.439114332,20250904141604642,None,10,228.6891632080078,-4,-60,-27,-7,23,-5,3,9,1757009764641552686
0,4.446398973,20250904141604649,None,10,228.6891632080078,-8,94,10,6,33,14,13,3,1757009764648885011
0,4.446678638,20250904141604649,None,10,228.6891632080078,18,-35,21,-4,33,25,3,25,1757009764649050712
0,4.461691856,20250904141604664,None,10,229.403076171875,-20,-21,-25,-27,-35,-10,-11,-28,1757009764663923501
0,4.461934805,20250904141604664,None,10,229.403076171875,37,-8,-17,-11,-25,-23,-10,17,1757009764664060354
0,4.46919465,20250904141604672,None,10,229.403076171875,16,-1,-2,13,-23,-19,-3,5,1757009764671481132
0,4.469485998,20250904141604672,None,10,229.403076171875,-12,-12,-18,-14,-34,53,10,-7,1757009764671653032
0,4.476517677,20250904141604679,None,10,229.87901306152344,-7,7,2,10,-1,-27,-13,-15,1757009764678873300
0,4.476737976,20250904141604679,None,10,229.87901306152344,-7,-13,-13,-13,-16,-2,-26,-26,1757009764678991317
0,4.483856678,20250904141604686,None,10,228.6891632080078,11,-14,5,4,4,18,10,4,1757009764686342239
0,4.48403573,20250904141604687,None,10,228.6891632080078,5,108,9,4,33,23,13,13,1757009764686453104
0,4.499006986,20250904141604701,None,10,230.59292602539062,9,-11,24,22,11,-10,-2,9,1757009764701398849
0,4.499226331,20250904141604702,None,10,230.59292602539062,-20,-2,14,1,-48,-24,-11,1,1757009764701525449
0,4.506581783,20250904141604709,None,10,228.21322631835938,-7,-61,-15,6,-7,-64,-18,-21,1757009764708887815
0,4.506801367,20250904141604709,None,10,228.21322631835938,-8,31,-2,-19,-24,7,11,-1,1757009764709016561
0,4.5216095450000005,20250904141604724,None,10,228.45120239257812,-25,-43,-4,-4,-40,-31,6,2,1757009764723879575
0,4.521837473,20250904141604724,None,10,228.45120239257812,4,43,9,8,18,19,-2,-6,1757009764724000930
0,4.528766632,20250904141604731,None,10,228.45120239257812,11,7,-14,7,-25,-22,4,1,1757009764731380939
0,4.528964519,20250904141604731,None,10,228.45120239257812,-42,-22,-12,-12,-18,-14,11,-16,1757009764731499433
0,4.536131859,20250904141604739,None,10,229.87901306152344,1,5,24,9,-60,-19,-14,1,1757009764738864183
0,4.536308288,20250904141604739,None,10,229.87901306152344,13,-28,-32,-22,-22,-41,6,3,1757009764738981485
0,4.543786764,20250904141604746,None,10,228.6891632080078,4,34,49,15,30,25,1,-1,1757009764746442794
0,4.543922186,20250904141604746,None,10,228.6891632080078,-5,1,-5,7,-13,-27,-14,-19,1757009764746626615
0,4.558758497,20250904141604761,None,10,230.1169891357422,-8,-12,-1,2,-27,-21,-3,12,1757009764761434316
0,4.558898687,20250904141604761,None,10,230.1169891357422,1,-12,-11,14,-31,-42,-74,7,1757009764761595487
0,4.566209554,20250904141604769,None,10,230.1169891357422,1,-3,-3,-34,-39,12,-6,18,1757009764768868207
0,4.566365242,20250904141604769,None,10,230.1169891357422,-6,17,15,13,22,7,-18,-23,1757009764769016981
0,4.581438303,20250904141604784,None,10,230.35494995117188,-20,-14,-12,11,-31,-24,-2,-31,1757009764783947467
0,4.5815956589999995,20250904141604784,None,10,230.35494995117188,22,18,5,-11,12,-14,4,12,1757009764784103155
0,4.588888645,20250904141604791,None,10,227.97525024414062,-11,-51,-34,0,-46,4,14,-10,1757009764791500091
0,4.589062691,20250904141604792,None,10,227.97525024414062,-6,43,34,4,16,-26,-24,-11,1757009764791667938
0,4.59630537,20250904141604799,None,10,230.35494995117188,6,5,1,0,-46,18,41,7,1757009764798899412
0,4.596493482,20250904141604799,None,10,230.35494995117188,1,-18,-25,-8,17,-11,-12,7,1757009764799094676
0,4.603767633,20250904141604806,None,10,230.35494995117188,-9,5,4,-4,-16,17,3,-12,1757009764806468248
0,4.603914737,20250904141604806,None,10,230.35494995117188,9,-25,-36,-4,13,-23,18,5,1757009764806617021
0,4.618814468,20250904141604821,None,10,230.35494995117188,1,43,59,11,3,-5,-34,-3,1757009764821460008
0,4.618997097,20250904141604821,None,10,230.35494995117188,38,-11,3,-1,-63,-31,-12,1,1757009764821626186
0,4.626317501,20250904141604829,None,10,228.92713928222656,-7,-21,-22,-7,-19,-5,9,9,1757009764828937768
0,4.626525879,20250904141604829,None,10,228.92713928222656,-9,-3,-12,-27,-96,-10,-4,-12,1757009764829131603
0,4.641318321,20250904141604844,None,10,229.403076171875,-7,-25,-5,4,13,9,-4,-3,1757009764843929052
0,4.641479015,20250904141604844,None,10,229.403076171875,-18,-18,-6,15,23,9,-3,-8,1757009764844085931
0,4.648720264,20250904141604851,None,10,229.64105224609375,-7,67,42,6,-47,-15,0,-15,1757009764851416349
0,4.648874044,20250904141604851,None,10,229.64105224609375,2,-27,-16,-9,12,46,-7,-19,1757009764851567268
0,4.65630269,20250904141604859,None,10,228.6891632080078,-14,9,10,2,-5,13,12,-14,1757009764858996629
0,4.6564455030000005,20250904141604859,None,10,228.6891632080078,-2,-54,-13,-5,34,0,17,3,1757009764859139680
0,4.671244621,20250904141604874,None,10,228.21322631835938,-3,33,19,6,-3,24,-7,0,1757009764873878240
0,4.671438694,20250904141604874,None,10,228.21322631835938,13,2,6,5,0,2,-22,-3,1757009764874037027
0,4.6786820890000005,20250904141604881,None,10,228.21322631835938,2,-21,-28,-13,-19,7,16,8,1757009764881428241
0,4.6788010589999995,20250904141604881,None,10,228.21322631835938,-3,6,19,17,21,30,-5,1,1757009764881554365
0,4.686123371,20250904141604889,None,10,230.83090209960938,24,21,5,-11,-22,-25,2,16,1757009764888867855
0,4.686290264,20250904141604889,None,10,230.83090209960938,3,-9,-16,-15,19,17,2,-3,1757009764889004707
0,4.701115846,20250904141604904,None,10,230.83090209960938,10,10,16,12,36,14,-2,6,1757009764903787612
0,4.701239347,20250904141604904,None,10,230.83090209960938,-11,-6,-4,0,3,-15,-1,-6,1757009764903914690
0,4.708662748,20250904141604911,None,10,228.6891632080078,14,9,-10,24,19,25,13,3,1757009764911403894
0,4.708786487,20250904141604911,None,10,228.6891632080078,-3,17,40,-3,19,7,69,9,1757009764911531209
0,4.716268062,20250904141604919,None,10,229.64105224609375,-3,8,14,5,-64,-10,-39,2,1757009764918904066
0,4.716432333,20250904141604919,None,10,229.64105224609375,-12,-14,-15,-9,13,-2,70,7,1757009764919056177
0,4.731524706,20250904141604934,None,10,229.403076171875,-12,-6,-10,7,0,-8,-38,-6,1757009764934102535
0,4.731703758,20250904141604934,None,10,229.403076171875,-3,-31,-17,-5,-15,15,23,14,1757009764934270620
0,4.738694668,20250904141604941,None,10,228.92713928222656,3,30,3,8,21,8,7,8,1757009764941408872
0,4.738845348,20250904141604941,None,10,228.92713928222656,-20,6,4,-8,19,5,-16,-15,1757009764941546678
0,4.746050596,20250904141604949,None,10,230.1169891357422,1,-9,11,-20,-101,-27,3,-5,1757009764948777675
0,4.746156454,20250904141604949,None,10,230.1169891357422,1,5,-2,7,7,-1,10,14,1757009764948894977
0,4.76956892,20250904141604972,None,10,230.35494995117188,-23,-13,-1,1,43,15,-8,-38,1757009764972132682
0,4.769804477,20250904141604972,None,10,228.45120239257812,-8,-15,-33,-23,11,-3,-17,-1,1757009764972357749
0,4.770038605,20250904141604973,None,10,228.45120239257812,12,-22,15,6,22,-5,0,4,1757009764972843885
0,4.770130396,20250904141604973,None,10,228.45120239257812,4,52,2,5,54,12,5,13,1757009764972970485
0,4.776290178,20250904141604979,None,10,228.45120239257812,-18,-30,-21,6,-9,-11,-22,-11,1757009764979026079
0,4.776379108,20250904141604979,None,10,228.45120239257812,68,37,45,16,15,13,17,8,1757009764979165792
0,4.791269541,20250904141604994,None,10,228.45120239257812,2,-4,-10,0,-13,13,21,9,1757009764993916273
0,4.791435241,20250904141604994,None,10,228.45120239257812,-12,-34,-14,-3,-23,-5,-25,5,1757009764994084119
0,4.798614263,20250904141605001,None,10,229.64105224609375,5,11,-15,-8,-5,1,-5,1,1757009765001358747
0,4.798707247,20250904141605001,None,10,229.64105224609375,4,25,22,15,7,-6,9,3,1757009765001498937
0,4.806058407,20250904141605009,None,10,229.64105224609375,0,-13,12,12,38,13,3,5,1757009765008807420
0,4.806162596,20250904141605009,None,10,229.64105224609375,-8,39,-15,-4,-50,-17,-12,-5,1757009765008886575
0,4.821314096,20250904141605024,None,10,229.16510009765625,-35,-20,-12,-25,-11,31,1,13,1757009765023969650
0,4.821441412,20250904141605024,None,10,229.16510009765625,-9,-9,5,7,-35,-63,-13,0,1757009765024120330
0,4.828909397,20250904141605031,None,10,229.87901306152344,6,7,9,10,40,55,5,4,1757009765031444787
0,4.829077482,20250904141605032,None,10,229.87901306152344,-3,-6,-6,3,-24,13,8,10,1757009765031601428
0,4.836159467,20250904141605039,None,10,228.21322631835938,-9,-9,-23,-4,-19,-6,-5,-10,1757009765038881063
0,4.836335897,20250904141605039,None,10,228.21322631835938,8,-7,5,-6,-6,17,7,-16,1757009765039012908
0,4.851257324,20250904141605054,None,10,230.35494995117188,6,-79,-6,6,-10,-16,-4,1,1757009765053897619
0,4.851416111,20250904141605054,None,10,230.35494995117188,-18,52,0,0,6,-5,-47,-16,1757009765054070711
0,4.858671427,20250904141605061,None,10,228.45120239257812,-5,17,20,5,59,-1,-6,-1,1757009765061371326
0,4.85880208,20250904141605061,None,10,228.45120239257812,-22,15,-4,-4,-1,-12,6,-2,1757009765061512470
0,4.866178036,20250904141605069,None,10,230.59292602539062,2,-23,-8,2,46,23,31,13,1757009765068871259
0,4.866325378,20250904141605069,None,10,230.59292602539062,-19,-70,-26,-10,-12,4,1,-10,1757009765069028615
0,4.881319523,20250904141605084,None,10,229.64105224609375,11,61,17,13,-12,-6,2,3,1757009765083898782
0,4.88153243,20250904141605084,None,10,229.64105224609375,-11,8,9,-6,31,-14,-3,1,1757009765084029674
0,4.888629913,20250904141605091,None,10,229.64105224609375,-3,-17,-37,-7,-32,11,33,8,1757009765091368436
0,4.8887405390000005,20250904141605091,None,10,229.64105224609375,-9,-19,17,10,13,21,-3,-20,1757009765091531038
0,4.896142244,20250904141605099,None,10,229.16510009765625,17,15,7,13,7,36,-5,-6,1757009765098887681
0,4.896227121,20250904141605099,None,10,229.16510009765625,-1,-5,-8,-16,13,3,1,12,1757009765099048137
0,4.911051035,20250904141605114,None,10,229.87901306152344,14,-32,-15,-10,12,12,10,20,1757009765113790988
0,4.911146641,20250904141605114,None,10,229.87901306152344,8,48,7,-5,-18,18,-4,-1,1757009765113921642
0,4.9187612529999996,20250904141605121,None,10,228.45120239257812,-2,-10,4,20,11,-7,-3,-7,1757009765121493339
0,4.918912411,20250904141605121,None,10,228.45120239257812,4,-7,-16,-9,0,8,-8,1,1757009765121634006
0,4.926055431,20250904141605129,None,10,228.45120239257812,-7,4,11,0,-13,4,10,-8,1757009765128820180
0,4.926146507,20250904141605129,None,10,228.45120239257812,3,-4,-24,-2,34,-4,-9,-1,1757009765128948688
0,4.941268444,20250904141605144,None,10,228.45120239257812,29,13,32,20,41,15,9,6,1757009765143941164
0,4.941401481,20250904141605144,None,10,228.45120239257812,-6,-2,-7,-4,-43,-3,-3,6,1757009765144085168
0,4.948735952,20250904141605151,None,10,230.59292602539062,4,-24,-15,-19,38,3,-3,-17,1757009765151423692
0,4.948860883,20250904141605151,None,10,230.59292602539062,22,60,27,12,-2,19,2,11,1757009765151566505
0,4.956102371,20250904141605159,None,10,228.21322631835938,11,-5,-10,-1,-4,9,-5,4,1757009765158838510
0,4.956217766,20250904141605159,None,10,228.21322631835938,-4,-11,-7,3,10,14,5,5,1757009765158957004
0,4.971161604,20250904141605174,None,10,229.87901306152344,-6,-9,-7,-6,-32,-29,-1,1,1757009765173825979
0,4.97150898,20250904141605174,None,10,229.87901306152344,9,1,8,11,54,13,5,3,1757009765173948526
0,4.978697777,20250904141605181,None,10,229.16510009765625,-2,-1,-3,0,16,16,15,-7,1757009765181389093
0,4.97885251,20250904141605181,None,10,229.16510009765625,4,5,2,-3,5,-17,-7,3,1757009765181542634
0,4.986175298,20250904141605189,None,10,229.403076171875,2,-25,-15,-6,-17,27,58,12,1757009765188838720
0,4.986403227,20250904141605189,None,10,229.403076171875,3,26,0,0,-8,-1,-24,-3,1757009765188954353
0,5.001166343,20250904141605204,None,10,228.21322631835938,-4,-28,1,2,2,-23,7,-3,1757009765203854799
0,5.00131464,20250904141605204,None,10,228.21322631835938,-6,32,14,11,-19,19,5,-10,1757009765204021453
0,5.008685827,20250904141605211,None,10,228.21322631835938,-8,-22,-11,-5,-43,8,4,-2,1757009765211398363
0,5.008806944,20250904141605211,None,10,228.21322631835938,-12,-11,-10,1,4,5,2,-6,1757009765211546182
0,5.016104698,20250904141605219,None,10,230.59292602539062,12,4,-7,-14,-15,7,3,-7,1757009765218826293
0,5.016208172,20250904141605219,None,10,230.59292602539062,-4,-8,2,2,10,-29,-11,9,1757009765218956232
0,5.031338453,20250904141605234,None,10,230.59292602539062,18,0,1,3,-15,12,-52,-10,1757009765233928680
0,5.031511783,20250904141605234,None,10,230.59292602539062,-6,-6,0,13,7,-6,2,5,1757009765234082460
0,5.038670301,20250904141605241,None,10,228.45120239257812,11,17,22,6,-1,2,10,11,1757009765241356134
0,5.038792133,20250904141605241,None,10,228.45120239257812,-5,-5,-4,-2,20,12,9,3,1757009765241508722
0,5.046254635,20250904141605249,None,10,228.45120239257812,4,-5,-8,-4,-27,2,1,13,1757009765248880147
0,5.0464575289999996,20250904141605249,None,10,228.45120239257812,-10,-88,-42,-6,-26,2,0,1,1757009765249037504
0,5.061338663,20250904141605264,None,10,228.92713928222656,16,124,40,15,15,-11,-1,6,1757009765263900995
0,5.061464548,20250904141605264,None,10,228.92713928222656,10,-17,6,8,55,11,-4,-7,1757009765264041900
0,5.068795919,20250904141605271,None,10,229.16510009765625,5,-1,-2,4,21,1,-2,-6,1757009765271503210
0,5.068954706,20250904141605271,None,10,229.16510009765625,11,3,5,4,-12,7,0,-2,1757009765271725654
0,5.076167822,20250904141605279,None,10,229.64105224609375,-4,-4,-6,-6,-32,-24,3,0,1757009765278883695
0,5.07632041,20250904141605279,None,10,229.64105224609375,-31,-17,-13,-2,1,-12,-21,-32,1757009765279054164
0,5.091271877,20250904141605294,None,10,228.6891632080078,43,10,1,-2,-7,-2,-10,10,1757009765293869972
0,5.091439962,20250904141605294,None,10,228.6891632080078,-10,-6,-7,0,17,17,3,4,1757009765293966054
0,5.098693847,20250904141605301,None,10,230.1169891357422,-10,-38,-12,-4,2,7,8,-5,1757009765301390647
0,5.098825931,20250904141605301,None,10,230.1169891357422,6,31,-1,-3,16,-8,-2,-2,1757009765301561832
0,5.106157779,20250904141605309,None,10,228.21322631835938,2,7,23,10,-2,1,-7,6,1757009765308797836
0,5.106360912,20250904141605309,None,10,228.21322631835938,8,17,4,1,-23,-3,-49,-5,1757009765308910131
0,5.121251583,20250904141605324,None,10,230.59292602539062,-27,-36,-6,-2,0,3,-7,-22,1757009765323898792
0,5.121422291,20250904141605324,None,10,230.59292602539062,10,7,-20,-23,1,12,54,7,1757009765324047088
0,5.12895298,20250904141605331,None,10,228.45120239257812,4,5,21,4,-3,-1,-20,-3,1757009765331467866
0,5.129101991,20250904141605332,None,10,228.45120239257812,-1,-4,-6,-3,-31,-10,6,1,1757009765331745862
0,5.136207104,20250904141605339,None,10,230.1169891357422,-7,-4,-3,1,22,-1,8,0,1757009765338898420
0,5.136366844,20250904141605339,None,10,230.1169891357422,-7,-16,-21,8,62,10,6,5,1757009765339072465
0,5.151207447,20250904141605354,None,10,229.64105224609375,5,2,6,-3,-9,11,0,-9,1757009765353867769
0,5.151387453,20250904141605354,None,10,229.64105224609375,-8,-14,-17,-6,-1,23,3,-2,1757009765354008913
0,5.158677339,20250904141605361,None,10,229.403076171875,-6,1,0,1,-3,12,3,-5,1757009765361379861
0,5.158942222,20250904141605361,None,10,229.403076171875,3,-1,-6,-1,32,9,-4,-3,1757009765361518144
0,5.166146993,20250904141605369,None,10,229.403076171875,0,-15,-15,-7,-7,-36,-14,1,1757009765368807315
0,5.166254043,20250904141605369,None,10,229.403076171875,3,6,16,6,-5,12,3,2,1757009765368934392
0,5.181376219,20250904141605384,None,10,230.1169891357422,1,-31,-12,-2,12,43,1,10,1757009765383917570
0,5.181548118,20250904141605384,None,10,230.1169891357422,17,49,13,3,-8,7,-6,1,1757009765384068965
0,5.188746452,20250904141605391,None,10,228.45120239257812,16,-16,-6,-5,-6,-5,-5,1,1757009765391422748
0,5.188898086,20250904141605391,None,10,228.45120239257812,-22,-10,1,-1,0,8,17,-36,1757009765391593694
0,5.196261883,20250904141605399,None,10,230.59292602539062,-11,-10,-5,-3,2,-11,-20,-4,1757009765398887157
0,5.196456194,20250904141605399,None,10,230.59292602539062,-1,3,3,3,18,-1,0,-3,1757009765399048805
0,5.211168051,20250904141605414,None,10,228.21322631835938,7,-4,-2,1,-8,7,1,2,1757009765413851499
0,5.211301088,20250904141605414,None,10,228.21322631835938,20,-6,1,17,-18,22,16,6,1757009765413985013
0,5.218699455,20250904141605421,None,10,230.83090209960938,-7,41,-3,-9,-10,-2,-10,-3,1757009765421376705
0,5.218820572,20250904141605421,None,10,230.83090209960938,6,-12,20,4,25,-23,-5,2,1757009765421517372
0,5.226076364,20250904141605429,None,10,228.6891632080078,2,-3,-14,0,36,27,-8,10,1757009765428842067
0,5.226179123,20250904141605429,None,10,228.6891632080078,-5,-5,9,8,49,7,11,-1,1757009765428997516
0,5.241340875,20250904141605444,None,10,229.64105224609375,3,3,4,3,13,-8,-9,0,1757009765443985700
0,5.241468429,20250904141605444,None,10,229.64105224609375,-9,-2,-3,-1,3,-18,2,-7,1757009765444122552
0,5.256857633,20250904141605459,None,10,228.92713928222656,0,-1,-3,2,-8,8,6,1,1757009765459553718
0,5.256977081,20250904141605459,None,10,228.92713928222656,-26,-3,-3,-1,18,-33,-16,-12,1757009765459687709
0,5.257531643,20250904141605460,None,10,228.92713928222656,-2,-7,-14,0,-6,41,23,2,1757009765460340023
0,5.25763607,20250904141605460,None,10,228.92713928222656,-4,3,10,1,-4,-4,23,10,1757009765460455656
0,5.271003485,20250904141605473,None,10,228.45120239257812,-7,-8,-9,2,8,10,43,-12,1757009765473768711
0,5.271100998,20250904141605474,None,10,228.45120239257812,0,3,1,-6,-24,-7,-20,-3,1757009765473888397
0,5.27870202,20250904141605481,None,10,230.59292602539062,-4,2,10,3,-23,6,-7,4,1757009765481458187
0,5.27881217,20250904141605481,None,10,230.59292602539062,-3,-5,-1,6,8,-12,-6,4,1757009765481589794
0,5.286125898,20250904141605489,None,10,228.45120239257812,-14,-7,-6,-7,-4,9,20,-5,1757009765488867759
0,5.286237478,20250904141605489,None,10,228.45120239257812,11,8,10,-3,0,7,4,0,1757009765488991737
0,5.301125288,20250904141605504,None,10,230.59292602539062,3,0,-13,1,0,7,-1,1,1757009765503836393
0,5.3012361519999995,20250904141605504,None,10,230.59292602539062,-20,-3,-7,-7,-7,-14,-8,-22,1757009765503973484
0,5.308694601,20250904141605511,None,10,228.6891632080078,13,3,1,-5,2,13,5,7,1757009765511408090
0,5.308849334,20250904141605511,None,10,228.6891632080078,-2,-4,-8,0,-58,-36,-8,7,1757009765511574268
0,5.316210747,20250904141605519,None,10,229.87901306152344,0,4,12,-6,2,-7,-7,-16,1757009765518948554
0,5.316369056,20250904141605519,None,10,229.87901306152344,27,11,4,2,2,4,-1,5,1757009765519094705
0,5.331340074,20250904141605534,None,10,229.403076171875,-7,-74,-20,2,31,-5,-3,3,1757009765533917427
0,5.331653356,20250904141605534,None,10,229.403076171875,0,97,-1,-13,-57,-35,-3,6,1757009765534076452
0,5.338620901,20250904141605541,None,10,229.16510009765625,-1,-25,22,19,37,8,2,-11,1757009765541392326
0,5.338720083,20250904141605541,None,10,229.16510009765625,7,-16,-6,-4,-12,16,-3,3,1757009765541512966
0,5.346203327,20250904141605549,None,10,230.1169891357422,-1,2,0,4,12,-26,11,4,1757009765548918962
0,5.346315861,20250904141605549,None,10,230.1169891357422,-7,-11,-1,-14,5,15,5,7,1757009765549048900
0,5.3611712449999995,20250904141605564,None,10,230.1169891357422,-4,-5,-8,-4,12,2,1,-3,1757009765563893556
0,5.361327886,20250904141605564,None,10,230.1169891357422,2,-1,2,0,-11,3,2,-8,1757009765564045429
0,5.368616342,20250904141605571,None,10,230.1169891357422,20,10,10,0,1,46,54,7,1757009765571354627
0,5.368766784,20250904141605571,None,10,230.1169891357422,-8,-2,-7,5,43,-9,-32,5,1757009765571493387
0,5.376200914,20250904141605579,None,10,227.97525024414062,-19,-2,3,-1,3,24,0,-5,1757009765578906059
0,5.376347065,20250904141605579,None,10,227.97525024414062,2,-1,-5,-3,-5,-9,0,-5,1757009765579036951
0,5.391201496,20250904141605594,None,10,228.45120239257812,-11,-12,-2,-6,7,-7,11,-1,1757009765593841314
0,5.391365528,20250904141605594,None,10,228.45120239257812,8,9,2,5,-9,0,-14,-6,1757009765593994140
0,5.398696899,20250904141605601,None,10,229.87901306152344,4,20,6,0,-7,-6,3,2,1757009765601353168
0,5.398875952,20250904141605601,None,10,229.87901306152344,1,-4,1,-13,-26,6,9,3,1757009765601518630
0,5.406152487,20250904141605609,None,10,229.87901306152344,3,-3,-1,6,0,4,2,-10,1757009765608871936
0,5.406305074,20250904141605609,None,10,229.87901306152344,-7,-4,-7,-14,-41,-4,0,-1,1757009765609008789
0,5.421255827,20250904141605624,None,10,229.16510009765625,-11,-11,-3,2,11,7,1,-1,1757009765623901367
0,5.42142725,20250904141605624,None,10,229.16510009765625,-10,4,3,1,-26,12,-13,-16,1757009765624048233
0,5.428962946,20250904141605631,None,10,229.87901306152344,20,6,4,7,5,3,-4,4,1757009765631631612
0,5.429152488,20250904141605632,None,10,229.87901306152344,11,-8,-3,-8,-12,-12,-1,-5,1757009765631770610
0,5.436028242,20250904141605638,None,10,228.6891632080078,-44,37,7,0,-7,-9,8,-6,1757009765638772249
0,5.436148405,20250904141605639,None,10,228.6891632080078,8,-10,-4,4,21,15,-5,-3,1757009765638899087
0,5.451210975,20250904141605654,None,10,230.59292602539062,1,-4,12,3,20,24,-2,-8,1757009765653851747
0,5.451369047,20250904141605654,None,10,230.59292602539062,2,2,2,1,3,-29,-4,-2,1757009765654003620
0,5.466977358,20250904141605669,None,10,230.1169891357422,0,-1,-4,8,-48,6,-5,-7,1757009765669587373
0,5.467149973,20250904141605670,None,10,230.1169891357422,-7,-9,-9,-18,18,-28,-19,10,1757009765669785737
0,5.467676878,20250904141605670,None,10,230.1169891357422,-12,24,10,1,46,-3,-2,-1,1757009765670437574
0,5.467830419,20250904141605670,None,10,230.1169891357422,0,15,6,-2,-46,-27,-19,-14,1757009765670576095
0,5.481221437,20250904141605684,None,10,228.45120239257812,-11,-10,-5,6,-1,0,6,3,1757009765683892965
0,5.481433868,20250904141605684,None,10,228.45120239257812,2,1,2,0,10,6,13,5,1757009765684056758
0,5.488591671,20250904141605691,None,10,229.87901306152344,-5,-6,-6,0,-22,-6,-3,-4,1757009765691357851
0,5.488711595,20250904141605691,None,10,229.87901306152344,5,-3,0,0,10,-1,-5,4,1757009765691488981
0,5.496306896,20250904141605699,None,10,229.16510009765625,-4,-3,-4,-7,0,-8,-6,-3,1757009765698857545
0,5.496484756,20250904141605699,None,10,229.16510009765625,4,1,-1,0,-1,1,2,0,1757009765699028730
0,5.511219978,20250904141605714,None,10,229.64105224609375,-2,5,5,6,-17,-29,-3,2,1757009765713884115
0,5.511375427,20250904141605714,None,10,229.64105224609375,-3,0,-2,5,15,24,0,-1,1757009765714014530
0,5.519665003,20250904141605722,None,10,229.64105224609375,0,-6,-10,-19,-20,-13,-3,4,1757009765721440315
0,5.520036936,20250904141605723,None,10,229.64105224609375,-3,-4,-4,-9,-2,-7,-9,-9,1757009765721587419
0,5.526155233,20250904141605729,None,10,228.6891632080078,10,-2,3,5,-6,9,8,16,1757009765728802442
0,5.526265621,20250904141605729,None,10,228.6891632080078,-5,3,4,4,9,-18,-6,-8,1757009765728923320
0,5.541049003,20250904141605744,None,10,227.97525024414062,-4,-7,-25,-23,-41,-25,-6,6,1757009765743736982
0,5.541138887,20250904141605744,None,10,227.97525024414062,3,25,1,13,33,4,-8,-13,1757009765743853569
0,5.54861927,20250904141605751,None,10,230.59292602539062,4,-8,16,-6,5,5,0,4,1757009765751342058
0,5.548743248,20250904141605751,None,10,230.59292602539062,-1,-8,-21,-5,-6,-11,4,14,1757009765751453399
0,5.556099415,20250904141605759,None,10,228.45120239257812,-6,-7,9,3,3,7,-6,-8,1757009765758795976
0,5.55637002,20250904141605759,None,10,228.45120239257812,-9,7,-7,-1,-1,0,-2,1,1757009765758904218
0,5.571174621,20250904141605774,None,10,230.83090209960938,-9,-4,1,0,25,24,2,-17,1757009765773897647
0,5.57131505,20250904141605774,None,10,230.83090209960938,1,-12,-7,3,-15,-75,1,6,1757009765774043560
0,5.57862401,20250904141605781,None,10,229.16510009765625,-1,-9,-11,-13,11,21,2,-2,1757009765781372308
0,5.578763008,20250904141605781,None,10,229.16510009765625,4,8,-1,-3,15,19,8,15,1757009765781476974
0,5.593792915,20250904141605796,None,10,230.1169891357422,-5,2,7,4,15,-20,-12,-5,1757009765796494007
0,5.593906879,20250904141605796,None,10,230.1169891357422,-5,-9,-13,-12,26,2,-2,-3,1757009765796668529
0,5.601132869,20250904141605804,None,10,230.1169891357422,-12,-3,3,5,-8,-1,-11,-11,1757009765803883552
0,5.6012218,20250904141605804,None,10,230.1169891357422,-11,0,0,-9,2,33,32,1,1757009765804017305
0,5.608787536,20250904141605811,None,10,228.6891632080078,-10,-2,6,0,2,-18,3,4,1757009765811400413
0,5.608959198,20250904141605811,None,10,228.6891632080078,8,-4,-11,-12,-5,-10,-16,-13,1757009765811535120
0,5.623792648,20250904141605826,None,10,228.45120239257812,-32,-1,4,4,9,4,-6,-10,1757009765826472520
0,5.623933315,20250904141605826,None,10,228.45120239257812,-1,-1,-2,15,-8,4,5,10,1757009765826644420
0,5.6312339300000005,20250904141605834,None,10,230.35494995117188,-5,-1,1,-8,-7,0,1,0,1757009765833914279
0,5.631409883,20250904141605834,None,10,230.35494995117188,7,7,6,-3,10,1,-1,-7,1757009765834088563
0,5.6387465,20250904141605841,None,10,228.6891632080078,0,-10,-5,0,3,9,-2,2,1757009765841436624
0,5.638870954,20250904141605841,None,10,228.6891632080078,1,10,-8,-8,-10,-4,0,1,1757009765841598987
0,5.653710603,20250904141605856,None,10,230.83090209960938,13,-3,-4,0,6,1,-3,5,1757009765856408357
0,5.653851986,20250904141605856,None,10,230.83090209960938,2,-10,-9,-9,10,2,1,1,1757009765856575965
0,5.661124944,20250904141605864,None,10,228.92713928222656,-8,-40,-4,4,10,0,-2,-6,1757009765863840818
0,5.661245346,20250904141605864,None,10,228.92713928222656,-10,32,-6,-6,4,9,-17,9,1757009765863955974
0,5.668646812,20250904141605871,None,10,229.87901306152344,3,6,14,4,2,-2,0,-6,1757009765871353387
0,5.668810129,20250904141605871,None,10,229.87901306152344,8,1,1,4,-12,-24,-6,2,1757009765871480464
0,5.6838605399999995,20250904141605886,None,10,229.403076171875,-10,-10,-10,-2,-11,8,9,2,1757009765886528491
0,5.683990955,20250904141605886,None,10,229.403076171875,-2,-9,-6,-5,-7,-23,-6,-12,1757009765886669874
0,5.6914894579999995,20250904141605894,None,10,229.403076171875,-1,-1,0,0,29,20,-11,1,1757009765893906831
0,5.69174695,20250904141605894,None,10,230.1169891357422,2,2,-4,3,4,-19,2,4,1757009765894067049
0,5.6988782879999995,20250904141605901,None,10,230.1169891357422,-10,1,2,9,14,31,44,16,1757009765901370525
0,5.699043035,20250904141605902,None,10,230.1169891357422,-2,-2,4,3,15,-7,-22,4,1757009765901491641
0,5.713924885,20250904141605916,None,10,230.83090209960938,-9,-5,-5,-15,-9,-4,-2,-3,1757009765916377305
0,5.714105844,20250904141605917,None,10,230.83090209960938,13,14,9,16,17,0,3,4,1757009765916533470
0,5.7212531559999995,20250904141605924,None,10,228.21322631835938,11,-6,-4,2,-4,2,1,3,1757009765923811674
0,5.721429586,20250904141605924,None,10,228.21322631835938,-1,-7,-3,-3,2,5,3,4,1757009765923922061
0,5.729023933,20250904141605932,None,10,228.21322631835938,-2,4,-6,-3,23,-5,-3,-3,1757009765931581020
0,5.729190111,20250904141605932,None,10,228.21322631835938,-12,-4,2,-1,-10,5,2,-1,1757009765931788682
0,5.743757725,20250904141605946,None,10,228.45120239257812,7,-2,-4,-5,1,0,-2,-7,1757009765946370840
0,5.743890524,20250904141605946,None,10,228.45120239257812,-19,2,6,6,8,-4,0,-7,1757009765946488618
0,5.751472235,20250904141605954,None,10,229.87901306152344,4,6,-6,-7,-20,3,4,6,1757009765953894853
0,5.751648664,20250904141605954,None,10,229.87901306152344,-4,-4,-1,-3,-19,14,7,6,1757009765954041957
0,5.758956432,20250904141605961,None,10,229.16510009765625,-3,-4,2,-3,2,-27,-26,-6,1757009765961408615
0,5.759180069,20250904141605962,None,10,229.16510009765625,-4,-4,3,3,8,11,17,2,1757009765961548805
0,5.774205208,20250904141605977,None,10,229.64105224609375,-3,-6,-14,-11,-32,-25,-5,-1,1757009765976588010
0,5.774422169,20250904141605977,None,10,229.64105224609375,-6,10,22,8,-50,-20,-3,-6,1757009765976763963
0,5.781464338,20250904141605984,None,10,230.1169891357422,-4,-25,-11,2,11,3,2,-4,1757009765983918428
0,5.781662225,20250904141605984,None,10,230.1169891357422,3,30,2,-1,0,2,13,-2,1757009765984076499
0,5.78889966,20250904141605991,None,10,228.45120239257812,0,-11,-6,7,16,-2,-5,10,1757009765991377115
0,5.7890732289999995,20250904141605992,None,10,228.45120239257812,0,-22,-17,-12,-15,-32,-9,-8,1757009765991510868
0,5.804030657,20250904141606007,None,10,227.97525024414062,-6,9,-3,-10,0,15,6,-11,1757009766006465196
0,5.804222345,20250904141606007,None,10,227.97525024414062,8,3,-3,2,15,24,9,15,1757009766006617307
0,5.811561107,20250904141606014,None,10,227.97525024414062,-1,-4,-1,1,5,-35,6,-9,1757009766013941526
0,5.811757564,20250904141606014,None,10,227.97525024414062,5,-3,-5,3,32,8,-11,-4,1757009766014100074
0,5.8189682959999995,20250904141606021,None,10,230.59292602539062,-18,-5,-1,1,1,-9,-7,-5,1757009766021414995
0,5.819149256,20250904141606022,None,10,230.59292602539062,-12,-6,-2,-1,8,7,1,-9,1757009766021553039
0,5.83359766,20250904141606036,None,10,230.59292602539062,8,20,16,1,-6,-11,4,9,1757009766036281824
0,5.833717584,20250904141606036,None,10,230.59292602539062,2,-2,-5,-4,-22,6,-2,3,1757009766036406040
0,5.841187238,20250904141606044,None,10,228.92713928222656,-9,-8,-4,0,-2,-10,-7,-3,1757009766043902635
0,5.841298103,20250904141606044,None,10,228.92713928222656,-1,-4,-4,-11,-9,3,7,3,1757009766044047117
0,5.848564386,20250904141606051,None,10,228.92713928222656,2,3,-2,-1,-5,-1,0,-6,1757009766051356554
0,5.848645925,20250904141606051,None,10,228.92713928222656,-10,-6,4,4,-25,-5,-6,-12,1757009766051495790
0,5.8637542719999995,20250904141606066,None,10,229.87901306152344,-7,-10,-22,-12,0,-4,-2,-10,1757009766066442012
0,5.863889694,20250904141606066,None,10,229.87901306152344,-7,-33,-1,2,-4,-7,-4,6,1757009766066587448
0,5.871158123,20250904141606074,None,10,228.45120239257812,1,50,8,3,8,6,4,3,1757009766073899745
0,5.8712530130000005,20250904141606074,None,10,228.45120239257812,-1,-7,8,5,-8,-7,6,-5,1757009766074034452
0,5.878866434,20250904141606081,None,10,230.35494995117188,-8,-9,-4,2,-11,-2,-6,-14,1757009766081551790
0,5.878957748,20250904141606081,None,10,230.35494995117188,-10,-9,-8,-1,-23,0,3,0,1757009766081700801
0,5.893582821,20250904141606096,None,10,227.97525024414062,-21,-4,-5,0,32,-8,-9,-19,1757009766096320152
0,5.893674373,20250904141606096,None,10,227.97525024414062,-1,-1,-1,-7,-49,-28,-7,-3,1757009766096456527
0,5.901230812,20250904141606104,None,10,230.59292602539062,3,-4,-3,0,0,13,2,-4,1757009766103906154
0,5.901353121,20250904141606104,None,10,230.59292602539062,7,4,-3,5,-38,-16,-2,6,1757009766104063510
0,5.908679962,20250904141606111,None,10,228.21322631835938,-3,-5,-3,-5,5,15,-4,2,1757009766111416578
0,5.908782005,20250904141606111,None,10,228.21322631835938,-8,-4,5,-3,0,15,15,2,1757009766111556768
