gt,time_elapsed,current_time,current_task,motor_position,futek,emg0,emg1,emg2,emg3,emg4,emg5,emg6,emg7,emg_timer_stamp
0,0.041871071,20250904141033969,None,12,229.64105224609375,3,-2,-2,0,-2,0,-4,0,1757009433968982458
0,0.042063952,20250904141033969,None,12,229.64105224609375,0,1,-1,1,7,-1,-6,-1,1757009433969126224
0,0.049439669,20250904141033976,None,12,229.87901306152344,7,2,1,1,-7,-4,-1,1,1757009433976524353
0,0.049742222,20250904141033977,None,12,229.87901306152344,-2,-2,0,-4,-11,-1,-2,-1,1757009433976685523
0,0.056553364,20250904141033984,None,12,228.6891632080078,-2,-2,1,-1,-2,4,4,0,1757009433983843326
0,0.056644678,20250904141033984,None,12,228.6891632080078,0,1,-3,-2,2,-5,0,0,1757009433983937740
0,0.071923256,20250904141033999,None,12,228.21322631835938,2,-3,-3,0,0,-3,0,-4,1757009433999013662
0,0.071980715,20250904141033999,None,12,228.21322631835938,-9,-2,0,0,-2,0,-2,0,1757009433999189853
0,0.079122305,20250904141034006,None,12,228.21322631835938,4,2,-2,-2,1,17,4,0,1757009434006400823
0,0.079201698,20250904141034006,None,12,228.21322631835938,0,-3,0,-1,-1,-25,-2,3,1757009434006488800
0,0.086908817,20250904141034014,None,12,230.35494995117188,-6,0,-4,1,-3,4,-5,-2,1757009434014099359
0,0.087008,20250904141034014,None,12,230.35494995117188,-3,0,-1,-1,-2,3,4,0,1757009434014238119
0,0.101832867,20250904141034029,None,12,230.35494995117188,-1,0,-1,0,2,-3,-9,-4,1757009434028990268
0,0.101940394,20250904141034029,None,12,230.35494995117188,6,-1,-2,0,4,-3,-1,3,1757009434029124021
0,0.109290838,20250904141034036,None,12,228.92713928222656,-3,-1,2,2,0,3,6,2,1757009434036514043
0,0.109458685,20250904141034036,None,12,228.92713928222656,-3,-3,-6,-1,-5,-9,-9,1,1757009434036653518
0,0.116770268,20250904141034044,None,12,228.92713928222656,-2,-2,1,-4,-1,-5,-3,-8,1757009434043959617
0,0.117073059,20250904141034044,None,12,229.64105224609375,6,2,-4,0,1,9,12,0,1757009434044192075
0,0.131900787,20250904141034059,None,12,229.87901306152344,1,-1,-3,-2,-1,-3,-5,4,1757009434059068202
0,0.132072926,20250904141034059,None,12,229.87901306152344,0,0,1,-2,-2,-4,-3,-1,1757009434059261322
0,0.139226198,20250904141034066,None,12,228.6891632080078,-2,-2,1,2,-2,3,-3,-3,1757009434066490411
0,0.139318228,20250904141034066,None,12,228.6891632080078,0,3,-1,-6,-6,-1,1,-1,1757009434066641330
0,0.146638632,20250904141034074,None,12,230.1169891357422,5,2,-2,2,-2,0,-1,3,1757009434073979377
0,0.146727324,20250904141034074,None,12,230.1169891357422,0,-1,0,-2,-4,-8,-6,-2,1757009434074090480
0,0.16162777,20250904141034089,None,12,230.59292602539062,-2,-1,-2,0,1,0,1,1,1757009434088925838
0,0.161706209,20250904141034089,None,12,230.59292602539062,2,1,0,-1,1,3,1,1,1757009434089041471
0,0.169151783,20250904141034096,None,12,230.59292602539062,-4,0,-1,2,0,2,-1,0,1757009434096478223
0,0.1696105,20250904141034097,None,12,230.59292602539062,-1,0,0,0,-2,-3,5,0,1757009434096597433
0,0.176666498,20250904141034104,None,12,228.92713928222656,1,1,1,0,0,-2,-2,0,1757009434103907108
0,0.176819563,20250904141034104,None,12,228.92713928222656,0,-4,-1,-2,-4,-9,-3,-1,1757009434104009866
0,0.191871643,20250904141034119,None,12,229.403076171875,3,1,-2,0,2,1,0,0,1757009434119023084
0,0.192026377,20250904141034119,None,12,229.403076171875,0,-3,0,-2,-4,-13,3,-2,1757009434119171619
0,0.199325085,20250904141034126,None,12,229.64105224609375,-1,-3,-3,-4,0,0,-1,-4,1757009434126551628
0,0.199453116,20250904141034126,None,12,229.64105224609375,-7,-1,-2,1,-1,4,3,0,1757009434126687049
0,0.206571579,20250904141034134,None,12,229.64105224609375,1,2,0,1,1,3,-3,0,1757009434133906126
0,0.206625939,20250904141034134,None,12,229.64105224609375,-2,0,0,-2,-1,-5,-1,1,1757009434133996963
0,0.221804381,20250904141034149,None,12,229.16510009765625,-12,-5,-4,-4,-6,-8,-3,2,1757009434149004459
0,0.221917629,20250904141034149,None,12,229.16510009765625,4,0,0,0,1,5,6,-1,1757009434149144411
0,0.229486942,20250904141034156,None,12,230.35494995117188,-1,-5,-1,-1,3,6,-7,1,1757009434156682729
0,0.229603529,20250904141034157,None,12,230.35494995117188,9,-1,0,-6,-5,-7,-7,-1,1757009434156930446
0,0.237089634,20250904141034164,None,12,228.6891632080078,1,1,1,-2,-4,-1,3,-5,1757009434164270639
0,0.237188101,20250904141034164,None,12,228.6891632080078,1,0,-2,1,0,-2,1,3,1757009434164534091
0,0.251838684,20250904141034179,None,12,230.59292602539062,-3,-1,-2,1,0,-4,-4,1,1757009434179082870
0,0.251943827,20250904141034179,None,12,230.59292602539062,-1,1,0,0,-1,2,1,-1,1757009434179253101
0,0.259276152,20250904141034186,None,12,228.6891632080078,-1,0,1,-1,1,-1,-3,-1,1757009434186524152
0,0.259376526,20250904141034186,None,12,228.6891632080078,-1,-3,1,0,3,-3,-2,-8,1757009434186656713
0,0.266718149,20250904141034194,None,12,230.1169891357422,1,-3,-3,-1,-6,-2,-3,-1,1757009434194017171
0,0.266801596,20250904141034194,None,12,230.1169891357422,9,8,1,0,0,-2,-1,-1,1757009434194134712
0,0.281836271,20250904141034209,None,12,229.403076171875,-2,-3,-2,2,-2,4,0,3,1757009434209027767
0,0.281976223,20250904141034209,None,12,229.403076171875,2,-1,-1,0,0,-6,-1,1,1757009434209158897
0,0.289181471,20250904141034216,None,12,229.64105224609375,-6,0,0,-1,-1,-3,-3,3,1757009434216464042
0,0.289255381,20250904141034216,None,12,229.64105224609375,5,-1,-1,-3,0,-3,-2,0,1757009434216592788
0,0.304311514,20250904141034231,None,12,229.403076171875,-4,-5,-1,0,-4,-4,0,-1,1757009434231526374
0,0.304444552,20250904141034231,None,12,229.403076171875,1,3,0,-4,2,23,-3,-1,1757009434231658458
0,0.311821699,20250904141034239,None,12,230.35494995117188,-2,-3,-1,0,-3,-32,-3,-4,1757009434239005804
0,0.311993599,20250904141034239,None,12,230.35494995117188,-1,1,0,2,1,7,-1,2,1757009434239204883
0,0.319341898,20250904141034246,None,12,230.35494995117188,0,0,2,-2,-1,1,0,-2,1757009434246549129
0,0.319447279,20250904141034246,None,12,230.35494995117188,-2,4,1,-2,-1,3,-2,-1,1757009434246696233
0,0.334292889,20250904141034261,None,12,230.59292602539062,4,-1,1,-4,-1,0,-2,0,1757009434261535882
0,0.334410668,20250904141034261,None,12,230.59292602539062,0,-2,-1,3,-3,-2,9,-6,1757009434261672496
0,0.341781855,20250904141034269,None,12,228.6891632080078,2,0,1,2,2,1,-10,-2,1757009434269031763
0,0.341889858,20250904141034269,None,12,228.6891632080078,0,-1,1,-1,-5,-5,-2,1,1757009434269160270
0,0.349169493,20250904141034276,None,12,230.59292602539062,1,-1,0,-2,1,1,5,2,1757009434276458501
0,0.349277496,20250904141034276,None,12,230.59292602539062,-3,-2,-1,-1,-1,-3,-5,-2,1757009434276571035
0,0.364270449,20250904141034291,None,12,229.16510009765625,-4,2,-2,-1,2,3,8,-2,1757009434291522502
0,0.364378691,20250904141034291,None,12,229.16510009765625,1,-3,0,1,2,3,3,1,1757009434291653633
0,0.371725798,20250904141034299,None,12,229.87901306152344,-1,2,1,0,3,-5,-10,-2,1757009434298998832
0,0.371858835,20250904141034299,None,12,229.87901306152344,2,0,-2,0,-3,-5,-5,-1,1757009434299103736
0,0.379261732,20250904141034306,None,12,229.64105224609375,-3,-1,-1,-2,-4,-2,6,-2,1757009434306528091
0,0.379379034,20250904141034306,None,12,229.64105224609375,-4,-3,-2,1,-1,-3,5,2,1757009434306657552
0,0.394299269,20250904141034321,None,12,230.1169891357422,-2,1,-4,-1,3,-7,-5,-1,1757009434321529388
0,0.394396067,20250904141034321,None,12,230.1169891357422,9,4,2,-1,1,5,4,1,1757009434321666240
0,0.401724339,20250904141034329,None,12,230.1169891357422,-1,-4,-3,-1,3,-2,-10,0,1757009434328989505
0,0.401829958,20250904141034329,None,12,230.1169891357422,0,-3,-3,-6,-3,-5,1,-4,1757009434329123735
0,0.409224749,20250904141034336,None,12,228.92713928222656,-1,0,-2,-3,1,0,-5,-5,1757009434336469173
0,0.409431458,20250904141034336,None,12,228.92713928222656,-1,1,-3,-1,-4,0,1,2,1757009434336590051
0,0.424391985,20250904141034351,None,12,228.45120239257812,-5,-2,2,2,3,17,2,1,1757009434351597309
0,0.424527168,20250904141034352,None,12,228.45120239257812,2,2,-1,0,-4,-30,-1,-1,1757009434351763963
0,0.431927443,20250904141034359,None,12,230.35494995117188,1,-1,-1,0,2,10,5,-2,1757009434359066963
0,0.432132006,20250904141034359,None,12,230.35494995117188,1,-1,1,0,0,0,0,0,1757009434359185934
0,0.439297438,20250904141034366,None,12,230.35494995117188,-1,0,-1,1,-2,-3,-10,-5,1757009434366545915
0,0.439426661,20250904141034366,None,12,230.35494995117188,-1,1,0,-1,-3,-3,4,-1,1757009434366694927
0,0.454320192,20250904141034381,None,12,229.64105224609375,1,-1,-3,-2,0,-4,0,1,1757009434381554603
0,0.454440594,20250904141034381,None,12,229.64105224609375,3,0,0,-3,0,-3,-1,-2,1757009434381712198
0,0.461668968,20250904141034389,None,12,229.403076171875,-3,-2,2,-2,-1,-1,-3,-2,1757009434388948202
0,0.461791039,20250904141034389,None,12,229.403076171875,0,-3,-2,3,0,-1,-2,-3,1757009434389070034
0,0.469190836,20250904141034396,None,12,229.403076171875,1,2,3,1,1,-7,0,0,1757009434396468877
0,0.469303608,20250904141034396,None,12,229.403076171875,0,0,-1,1,-3,3,2,2,1757009434396589994
0,0.484278679,20250904141034411,None,12,230.1169891357422,-3,-3,-3,-2,-2,2,-2,0,1757009434411502838
0,0.484409094,20250904141034411,None,12,230.1169891357422,-3,-4,-2,0,3,-4,-3,-2,1757009434411626100
0,0.491676092,20250904141034419,None,12,228.6891632080078,-1,-2,-1,-2,-2,2,6,0,1757009434418960571
0,0.491820336,20250904141034419,None,12,228.6891632080078,-2,1,-2,-3,-6,-3,-12,-3,1757009434419091701
0,0.499227286,20250904141034426,None,12,230.35494995117188,5,-1,-1,2,0,-3,2,0,1757009434426511764
0,0.499359369,20250904141034426,None,12,230.35494995117188,-4,-4,-1,2,3,4,7,-1,1757009434426626205
0,0.514312267,20250904141034441,None,12,230.59292602539062,-12,-3,-4,-1,-7,-2,-3,-5,1757009434441521883
0,0.514477015,20250904141034441,None,12,230.59292602539062,8,0,-3,0,3,1,6,4,1757009434441676616
0,0.521689415,20250904141034449,None,12,230.59292602539062,-1,0,-4,-3,-4,0,-8,-1,1757009434448965549
0,0.521812916,20250904141034449,None,12,230.59292602539062,-9,-4,-1,-1,-5,-3,0,-2,1757009434449095964
0,0.529376507,20250904141034456,None,12,228.92713928222656,0,2,0,-1,1,4,10,4,1757009434456603765
0,0.529495001,20250904141034456,None,12,228.92713928222656,-3,-2,0,2,3,5,1,-4,1757009434456766366
0,0.54438138,20250904141034471,None,12,229.403076171875,-1,-2,-1,0,-3,-19,-6,-2,1757009434471576213
0,0.544507504,20250904141034471,None,12,229.403076171875,2,0,-1,1,2,9,0,1,1757009434471746206
0,0.551822424,20250904141034479,None,12,229.403076171875,-6,-2,1,-1,8,0,-5,-2,1757009434479033231
0,0.55215025,20250904141034479,None,12,229.403076171875,-8,-1,-5,-4,-15,2,4,0,1757009434479193687
0,0.560205698,20250904141034487,None,12,229.87901306152344,15,2,0,-2,0,2,1,2,1757009434486960649
0,0.560408354,20250904141034487,None,12,229.87901306152344,-2,-4,-1,0,-2,-7,-14,-2,1757009434487164497
0,0.583397627,20250904141034510,None,12,230.35494995117188,-1,-3,-3,-1,1,4,1,-1,1757009434510011434
0,0.583636999,20250904141034511,None,12,230.35494995117188,-6,1,-3,-2,-1,-3,-8,-4,1757009434510246515
0,0.584138155,20250904141034511,None,12,230.35494995117188,-5,-5,0,-1,-4,-3,5,1,1757009434511003494
0,0.584377289,20250904141034511,None,12,230.35494995117188,-1,0,1,-4,-2,1,4,5,1757009434511154890
0,0.589526653,20250904141034517,None,12,228.45120239257812,-1,0,-3,0,-1,8,5,-5,1757009434516669511
0,0.589700937,20250904141034517,None,12,228.45120239257812,-3,-3,-1,-1,0,-4,-3,2,1757009434516829967
0,0.604895115,20250904141034532,None,12,228.45120239257812,-3,0,0,3,2,0,2,3,1757009434531896829
0,0.605181217,20250904141034532,None,12,228.45120239257812,1,-3,-2,-4,-8,-2,-3,-2,1757009434532182455
0,0.612235069,20250904141034539,None,12,228.45120239257812,-1,-2,0,-3,0,6,3,-7,1757009434539328336
0,0.612451315,20250904141034539,None,12,228.45120239257812,1,-1,0,-1,-1,-5,6,-2,1757009434539522886
0,0.619564772,20250904141034547,None,12,230.35494995117188,-1,1,-4,0,-1,-1,-12,-4,1757009434546735763
0,0.619743586,20250904141034547,None,12,230.35494995117188,-2,-1,-1,-1,-2,-3,2,1,1757009434546916961
0,0.6346488,20250904141034562,None,12,229.64105224609375,-3,-3,-2,3,0,-5,-8,0,1757009434561769962
0,0.634848356,20250904141034562,None,12,229.64105224609375,-1,1,1,1,-5,3,5,-2,1757009434561992406
0,0.642582178,20250904141034570,None,12,229.64105224609375,-2,1,0,0,-1,1,-3,-3,1757009434569371223
0,0.642866373,20250904141034570,None,12,229.64105224609375,0,2,-1,-2,0,-1,1,-1,1757009434569555521
0,0.649740458,20250904141034577,None,12,229.64105224609375,-8,-2,0,0,2,7,3,0,1757009434576556444
0,0.650172711,20250904141034577,None,12,229.64105224609375,4,-2,-2,-3,-5,-27,-4,2,1757009434576681375
0,0.664803505,20250904141034592,None,12,230.35494995117188,0,0,1,-4,0,12,8,0,1757009434591540813
0,0.665021181,20250904141034592,None,12,230.35494995117188,-3,-3,0,0,-1,0,0,-3,1757009434591675758
0,0.67222023,20250904141034599,None,12,228.45120239257812,-10,-3,-3,-1,-2,-7,-3,0,1757009434599018335
0,0.672483683,20250904141034599,None,12,228.45120239257812,7,3,-1,1,-1,-2,-2,-6,1757009434599139213
0,0.679635286,20250904141034607,None,12,230.59292602539062,3,1,-1,-2,1,2,-1,-3,1757009434606462240
0,0.679877997,20250904141034607,None,12,230.59292602539062,-2,-5,1,-3,0,3,2,0,1757009434606580495
0,0.69472146,20250904141034622,None,12,228.6891632080078,-3,-4,2,-2,2,1,-1,1,1757009434621529817
0,0.694965601,20250904141034622,None,12,228.6891632080078,-2,1,1,3,5,1,-3,-3,1757009434621657848
0,0.702233076,20250904141034629,None,12,229.87901306152344,-2,-4,0,-2,-2,-4,-3,0,1757009434629046201
0,0.702451706,20250904141034629,None,12,229.87901306152344,0,2,-3,-3,-6,4,6,-4,1757009434629168748
0,0.709701538,20250904141034637,None,12,229.16510009765625,-2,-1,1,-3,-1,-5,-3,-3,1757009434636520862
0,0.709985733,20250904141034637,None,12,229.16510009765625,1,0,2,2,1,3,0,1,1757009434636647462
0,0.724689484,20250904141034652,None,12,229.403076171875,-3,-1,-1,-3,2,-1,-1,-1,1757009434651496171
0,0.725028038,20250904141034652,None,12,229.403076171875,3,-2,-2,-2,3,0,-7,-4,1757009434651623725
0,0.732010365,20250904141034659,None,12,229.87901306152344,-2,-4,-2,-1,-7,-3,2,-1,1757009434659016847
0,0.732113361,20250904141034659,None,12,229.87901306152344,0,0,2,-1,1,-3,0,5,1757009434659137725
0,0.739257336,20250904141034666,None,12,229.16510009765625,-2,0,-2,0,-4,4,-1,-2,1757009434666507005
0,0.739357472,20250904141034666,None,12,229.16510009765625,-5,-4,-3,0,3,-1,3,-4,1757009434666639804
0,0.75432539,20250904141034681,None,12,228.21322631835938,4,-2,-1,-1,-11,-4,-1,-1,1757009434681556463
0,0.754439354,20250904141034681,None,12,228.21322631835938,1,1,-2,0,-1,0,-2,1,1757009434681731224
0,0.761691809,20250904141034689,None,12,228.21322631835938,0,-1,1,3,3,6,5,-1,1757009434688965082
0,0.761795998,20250904141034689,None,12,228.21322631835938,2,-1,-3,-2,-1,-5,4,-2,1757009434689089059
0,0.769255638,20250904141034696,None,12,230.59292602539062,1,1,-4,1,3,-2,-27,-3,1757009434696552276
0,0.769351721,20250904141034696,None,12,230.59292602539062,-1,1,-3,-5,-3,-18,2,0,1757009434696663618
0,0.784327984,20250904141034711,None,12,230.35494995117188,-1,-1,2,0,-9,2,3,1,1757009434711549997
0,0.784447193,20250904141034711,None,12,230.35494995117188,0,0,0,2,1,10,6,0,1757009434711704492
0,0.79180193,20250904141034719,None,12,228.6891632080078,-1,0,-1,-2,-2,5,4,-3,1757009434719010829
0,0.791920424,20250904141034719,None,12,228.6891632080078,-13,-5,-3,2,-6,-7,-2,-3,1757009434719148635
0,0.799412727,20250904141034726,None,12,229.87901306152344,12,0,-1,-1,1,0,-2,3,1757009434726613044
0,0.799525261,20250904141034727,None,12,229.87901306152344,-3,0,-1,1,-1,-5,0,1,1757009434726798534
0,0.814702034,20250904141034742,None,12,229.403076171875,-5,-4,-2,-1,-1,-2,-4,3,1757009434741497993
0,0.81498003,20250904141034742,None,12,229.403076171875,-4,-2,-4,1,1,0,0,-5,1757009434741647243
0,0.822211981,20250904141034749,None,12,229.16510009765625,-3,-1,0,-3,-1,3,2,-2,1757009434749040365
0,0.822421789,20250904141034749,None,12,229.16510009765625,3,3,-1,-2,0,3,-4,-4,1757009434749151706
0,0.829662085,20250904141034757,None,12,230.35494995117188,0,-1,1,2,0,-4,-1,-1,1757009434756511926
0,0.829884768,20250904141034757,None,12,230.35494995117188,-2,-2,2,-1,-1,4,0,-3,1757009434756587028
0,0.844791412,20250904141034772,None,12,228.21322631835938,-8,-2,-5,-6,-10,-3,-4,-1,1757009434771538019
0,0.845010519,20250904141034772,None,12,228.21322631835938,-1,-3,0,-4,0,1,1,-2,1757009434771710634
0,0.85221529,20250904141034779,None,12,230.35494995117188,-5,-2,-1,-3,-1,-6,-1,1,1757009434779015064
0,0.85252285,20250904141034780,None,12,230.35494995117188,3,0,0,-1,2,3,2,-1,1757009434779135465
0,0.85987401,20250904141034787,None,12,228.45120239257812,-3,-2,0,-2,-1,2,-1,-2,1757009434786558389
0,0.860095024,20250904141034787,None,12,228.45120239257812,4,0,0,1,-1,1,6,2,1757009434786705493
0,0.874778986,20250904141034802,None,12,229.16510009765625,-3,-2,-1,-1,-4,-7,-7,-2,1757009434801532268
0,0.875020981,20250904141034802,None,12,229.16510009765625,-1,0,1,0,0,-3,-9,-3,1757009434801681041
0,0.882193327,20250904141034809,None,12,229.16510009765625,-4,0,-1,0,2,8,6,-2,1757009434809061288
0,0.882403374,20250904141034809,None,12,229.16510009765625,-3,-1,0,-3,-1,-14,-6,-1,1757009434809250354
0,0.889588118,20250904141034817,None,12,229.64105224609375,0,-3,-3,-1,-5,1,2,0,1757009434816454410
0,0.88983345,20250904141034817,None,12,229.64105224609375,4,2,0,-1,3,2,-3,-3,1757009434816586256
0,0.904858351,20250904141034832,None,12,229.16510009765625,-1,0,1,0,0,4,6,5,1757009434831596612
0,0.905077696,20250904141034832,None,12,229.16510009765625,-7,0,4,-3,-2,1,-8,-1,1757009434831740140
0,0.912218571,20250904141034839,None,12,229.87901306152344,8,-2,0,0,-2,-1,-6,-1,1757009434839004278
0,0.912431717,20250904141034839,None,12,229.87901306152344,-3,-3,0,2,1,2,5,1,1757009434839123487
0,0.919716835,20250904141034847,None,12,228.6891632080078,-6,0,-1,2,0,0,5,-3,1757009434846516132
0,0.920051575,20250904141034847,None,12,228.6891632080078,-6,-2,-2,-1,-5,-8,-17,-2,1757009434846629619
0,0.934815169,20250904141034862,None,12,230.35494995117188,7,-1,-2,-3,0,4,7,1,1757009434861576795
0,0.93503809,20250904141034862,None,12,230.35494995117188,-3,-4,-1,-6,1,-3,-8,-3,1757009434861719369
0,0.942176819,20250904141034869,None,12,228.45120239257812,3,-1,2,-1,0,-1,10,1,1757009434868980646
0,0.942390919,20250904141034869,None,12,228.45120239257812,0,-2,-4,-1,2,-5,-8,-1,1757009434869103908
0,0.94964695,20250904141034877,None,12,230.59292602539062,-3,0,-1,-2,-3,-2,-1,3,1757009434876442432
0,0.949995756,20250904141034877,None,12,230.59292602539062,1,0,-1,-2,-2,2,4,0,1757009434876553773
0,0.964731217,20250904141034892,None,12,229.16510009765625,-5,2,2,-1,6,1,-2,0,1757009434891528844
0,0.964974404,20250904141034892,None,12,229.16510009765625,1,-2,0,-5,-1,-4,1,3,1757009434891665935
0,0.971982479,20250904141034899,None,12,229.87901306152344,-3,-2,0,-1,-2,2,-1,-5,1757009434898954391
0,0.972174883,20250904141034899,None,12,229.87901306152344,-4,-1,2,-1,-3,0,0,-3,1757009434899072885
0,0.979287386,20250904141034906,None,12,229.403076171875,2,-3,2,0,6,0,-2,3,1757009434906491041
0,0.979445696,20250904141034906,None,12,229.403076171875,-1,0,1,-1,-3,-1,-4,-2,1757009434906617641
0,0.994265795,20250904141034921,None,12,230.1169891357422,-4,1,-3,-2,4,-2,-7,-4,1757009434921508550
0,0.994378567,20250904141034921,None,12,230.1169891357422,2,0,-2,0,2,16,2,1,1757009434921641588
0,1.001989126,20250904141034929,None,12,228.6891632080078,-2,-2,2,0,-1,-28,1,-1,1757009434928935050
0,1.002119064,20250904141034929,None,12,228.6891632080078,0,-1,-1,-1,-1,7,-3,-1,1757009434929055213
0,1.009256601,20250904141034936,None,12,228.6891632080078,-5,-2,-1,-3,-1,0,2,-2,1757009434936508655
0,1.009358645,20250904141034936,None,12,228.6891632080078,4,-2,-2,1,-1,1,0,2,1757009434936657428
0,1.024271727,20250904141034951,None,12,228.45120239257812,1,0,0,-1,0,-1,-2,-2,1757009434951523303
0,1.024384737,20250904141034951,None,12,228.45120239257812,-2,-2,-3,-1,-2,4,3,-2,1757009434951654672
0,1.031742334,20250904141034959,None,12,230.35494995117188,-7,-1,-2,-2,-4,-3,0,0,1757009434959000349
0,1.031847716,20250904141034959,None,12,230.35494995117188,8,2,0,-2,-5,-1,-3,-2,1757009434959149599
0,1.039452553,20250904141034966,None,12,228.6891632080078,-7,-1,-2,-1,-1,-3,-2,0,1757009434966576099
0,1.039633513,20250904141034967,None,12,228.6891632080078,4,1,-1,0,3,2,0,-1,1757009434966748952
0,1.054338217,20250904141034981,None,12,230.35494995117188,-3,1,-4,-2,0,-3,-4,-3,1757009434981520414
0,1.054495335,20250904141034981,None,12,230.35494995117188,-2,-2,-3,-2,-4,-5,-1,-2,1757009434981659650
0,1.061784268,20250904141034989,None,12,229.403076171875,-4,-4,1,-1,-1,1,7,-1,1757009434988970994
0,1.061962128,20250904141034989,None,12,229.403076171875,-1,-2,-3,1,-1,-4,-12,-2,1757009434989094257
0,1.0692873,20250904141034996,None,12,229.64105224609375,-1,1,0,0,4,-1,-7,0,1757009434996515989
0,1.069413662,20250904141034996,None,12,229.64105224609375,2,1,-2,0,-5,6,0,0,1757009434996676683
0,1.08431077,20250904141035011,None,12,229.16510009765625,2,-3,-3,0,-1,0,3,-3,1757009435011524677
0,1.084439755,20250904141035011,None,12,229.16510009765625,-1,-3,-1,-1,2,-3,0,-1,1757009435011663913
0,1.092054606,20250904141035019,None,12,229.16510009765625,0,2,-1,0,-1,-5,-5,2,1757009435019178390
0,1.092647314,20250904141035020,None,12,229.16510009765625,-5,-1,-2,-3,0,2,1,-13,1757009435019592046
0,1.099311113,20250904141035026,None,12,230.59292602539062,-1,-3,-2,0,-6,-8,-1,7,1757009435026564836
0,1.099409342,20250904141035026,None,12,230.59292602539062,-6,-2,0,1,1,-2,8,3,1757009435026701450
0,1.114489555,20250904141035041,None,12,230.35494995117188,2,1,-1,2,-2,-3,-7,-5,1757009435041572809
0,1.114670515,20250904141035042,None,12,230.35494995117188,1,0,0,-2,-3,0,-8,-1,1757009435041731357
0,1.121970654,20250904141035049,None,12,230.35494995117188,-8,-4,-2,-2,-3,8,8,-7,1757009435049024581
0,1.122149229,20250904141035049,None,12,230.35494995117188,-5,-1,-2,0,0,-1,0,-3,1757009435049157381
0,1.129426241,20250904141035056,None,12,228.45120239257812,2,0,3,-3,1,-3,-4,1,1757009435056675910
0,1.129510403,20250904141035056,None,12,228.45120239257812,-6,-1,0,-1,3,0,3,2,1757009435056861162
0,1.14432931,20250904141035071,None,12,229.16510009765625,1,0,-3,-2,-4,-6,-8,-1,1757009435071529150
0,1.144473791,20250904141035071,None,12,229.16510009765625,-2,-3,-3,-2,4,1,0,0,1757009435071653127
0,1.152400971,20250904141035079,None,12,229.64105224609375,-1,-1,0,-4,-1,-3,-2,0,1757009435079602718
0,1.152508497,20250904141035079,None,12,229.64105224609375,-1,-1,0,2,-1,1,0,-3,1757009435079803705
0,1.15969944,20250904141035087,None,12,230.1169891357422,-2,-5,-2,0,1,-4,-1,-5,1757009435086831331
0,1.159873963,20250904141035087,None,12,230.1169891357422,-1,-3,1,1,1,-1,0,-7,1757009435087037324
0,1.1746079919999999,20250904141035102,None,12,228.6891632080078,-1,-2,-2,-3,-1,-6,0,-1,1757009435101774454
0,1.174731493,20250904141035102,None,12,228.6891632080078,-3,-1,-3,0,-7,-1,-4,3,1757009435101954221
0,1.1817197799999999,20250904141035109,None,12,230.35494995117188,5,0,1,-5,-3,-1,-1,0,1757009435108983755
0,1.181826592,20250904141035109,None,12,230.35494995117188,-2,-2,0,-1,4,0,5,2,1757009435109108686
0,1.18925333,20250904141035116,None,12,228.45120239257812,-3,1,-4,2,3,1,-3,-2,1757009435116460800
0,1.189385414,20250904141035116,None,12,228.45120239257812,4,-4,1,-1,1,2,8,1,1757009435116584300
0,1.2045214180000001,20250904141035132,None,12,230.59292602539062,3,-1,1,0,-3,-1,-6,-3,1757009435131717443
0,1.204707384,20250904141035132,None,12,228.45120239257812,0,-1,-2,0,0,-7,-4,-3,1757009435131854295
0,1.21194315,20250904141035139,None,12,228.45120239257812,-1,-1,-5,-4,-5,-2,-4,-2,1757009435139203548
0,1.212052822,20250904141035139,None,12,228.45120239257812,-8,-5,-3,0,-2,-8,-9,-3,1757009435139349222
0,1.226961374,20250904141035154,None,12,228.6891632080078,1,-1,0,-1,-1,5,3,-1,1757009435154139280
0,1.227133513,20250904141035154,None,12,228.6891632080078,0,0,-1,1,1,7,6,-6,1757009435154259920
0,1.234423638,20250904141035161,None,12,229.403076171875,1,-6,1,-5,-1,-14,2,3,1757009435161656618
0,1.234528542,20250904141035162,None,12,229.403076171875,-7,-3,-2,1,-6,-1,-4,4,1757009435161818742
0,1.241890669,20250904141035169,None,12,229.403076171875,-5,-1,1,3,1,2,-7,-7,1757009435169135093
0,1.242003679,20250904141035169,None,12,229.403076171875,7,1,-2,-1,1,5,3,0,1757009435169266462
0,1.25701642,20250904141035184,None,12,228.92713928222656,-4,0,2,-1,-1,-1,1,-1,1757009435184159278
0,1.257181406,20250904141035184,None,12,228.92713928222656,0,1,-1,-2,-1,-2,-4,-4,1757009435184265613
0,1.264297724,20250904141035191,None,12,230.1169891357422,-2,-6,-2,-2,0,3,2,0,1757009435191532373
0,1.264422894,20250904141035191,None,12,230.1169891357422,-3,2,0,0,-3,-4,-2,0,1757009435191677331
0,1.271766186,20250904141035199,None,12,228.21322631835938,2,1,2,0,5,1,3,4,1757009435198985099
0,1.271880865,20250904141035199,None,12,228.21322631835938,-6,-2,-1,-7,-7,0,1,-3,1757009435199135065
0,1.2867772579999999,20250904141035214,None,12,230.59292602539062,-2,-4,0,-1,-3,-3,-2,-2,1757009435214007616
0,1.286871433,20250904141035214,None,12,230.59292602539062,0,-5,-2,0,-1,-4,-1,0,1757009435214158773
0,1.294188261,20250904141035221,None,12,228.6891632080078,1,1,-1,1,0,0,-2,0,1757009435221476316
0,1.29425931,20250904141035221,None,12,228.6891632080078,0,0,-4,-2,-1,1,4,-1,1757009435221605300
0,1.301689387,20250904141035229,None,12,229.87901306152344,-1,-4,-2,2,1,-1,6,-1,1757009435228978395
0,1.302036047,20250904141035229,None,12,229.87901306152344,-1,0,1,-3,-5,-5,-7,-3,1757009435229103326
0,1.316778183,20250904141035244,None,12,229.87901306152344,-1,-1,-1,-4,-2,-2,-7,-3,1757009435244026899
0,1.316883803,20250904141035244,None,12,229.87901306152344,-3,1,1,-1,-1,3,-2,0,1757009435244158029
0,1.324254513,20250904141035251,None,12,229.87901306152344,2,-3,1,0,-1,-5,-4,-3,1757009435251560449
0,1.3243284229999999,20250904141035251,None,12,229.87901306152344,-2,-3,1,-3,0,5,8,1,1757009435251643896
0,1.331740141,20250904141035259,None,12,229.403076171875,-4,0,-3,0,0,6,-1,2,1757009435259005069
0,1.331855297,20250904141035259,None,12,229.403076171875,-2,-3,-1,-2,5,3,15,2,1757009435259124994
0,1.346788168,20250904141035274,None,12,230.1169891357422,-8,-3,-1,-1,-5,-4,-9,-4,1757009435274012088
0,1.346888065,20250904141035274,None,12,230.1169891357422,0,-3,-1,1,-4,-4,2,0,1757009435274159669
0,1.354259968,20250904141035281,None,12,228.6891632080078,3,0,-1,0,5,25,10,1,1757009435281492233
0,1.354385138,20250904141035281,None,12,228.6891632080078,-14,-4,-2,-2,-3,-32,-15,0,1757009435281625747
0,1.361729384,20250904141035289,None,12,228.6891632080078,7,1,-2,-1,-3,0,-5,2,1757009435288961648
0,1.361859322,20250904141035289,None,12,228.6891632080078,1,0,-1,2,2,1,7,-2,1757009435289081096
0,1.376852274,20250904141035304,None,12,228.21322631835938,-1,-2,2,2,3,8,3,-1,1757009435304028987
0,1.376989603,20250904141035304,None,12,228.21322631835938,-3,2,3,2,-2,-2,-8,-4,1757009435304152727
0,1.384236574,20250904141035311,None,12,230.59292602539062,-5,0,-3,-2,0,2,2,1,1757009435311497211
0,1.384346962,20250904141035311,None,12,230.59292602539062,-4,1,-2,-1,-4,-2,-1,-2,1757009435311607837
0,1.391977072,20250904141035319,None,12,228.6891632080078,-1,-2,1,-1,1,5,5,2,1757009435319064617
0,1.392102003,20250904141035319,None,12,228.6891632080078,-1,0,-3,-1,6,2,2,-4,1757009435319360971
0,1.4072909359999999,20250904141035334,None,12,229.403076171875,1,-3,2,0,-9,-10,-7,-7,1757009435334149122
0,1.407515288,20250904141035335,None,12,229.403076171875,0,0,3,0,-2,-2,-3,6,1757009435334255933
0,1.414272308,20250904141035341,None,12,229.403076171875,-3,-3,0,-1,1,0,-2,0,1757009435341482162
0,1.414404869,20250904141035341,None,12,229.403076171875,1,-4,-4,-4,-1,-7,-3,-2,1757009435341594457
0,1.4216871260000001,20250904141035349,None,12,229.16510009765625,0,1,0,-1,-2,-4,-3,1,1757009435348862648
0,1.421899319,20250904141035349,None,12,229.16510009765625,-5,1,0,0,1,4,5,-6,1757009435348983764
0,1.436964035,20250904141035364,None,12,228.21322631835938,4,0,-1,1,-2,1,-2,0,1757009435364077806
0,1.437163115,20250904141035364,None,12,228.21322631835938,-1,-2,-1,0,1,1,0,1,1757009435364248752
0,1.444212437,20250904141035371,None,12,230.1169891357422,-4,-2,-3,-5,-4,-6,-5,2,1757009435371488332
0,1.444298029,20250904141035371,None,12,230.1169891357422,-11,-1,1,2,1,-2,9,-2,1757009435371610641
0,1.451788426,20250904141035379,None,12,230.1169891357422,4,1,1,-2,-1,-2,-2,1,1757009435379036664
0,1.4523000719999999,20250904141035379,None,12,230.1169891357422,-3,-1,0,2,-1,6,2,-1,1757009435379185438
0,1.466792345,20250904141035394,None,12,230.35494995117188,6,-2,0,1,1,-6,-3,2,1757009435394009351
0,1.466892481,20250904141035394,None,12,230.35494995117188,-5,-2,0,-3,-3,-4,0,0,1757009435394171476
0,1.474549055,20250904141035402,None,12,228.92713928222656,-4,2,-1,-3,-2,2,1,1,1757009435401498556
0,1.474796534,20250904141035402,None,12,228.92713928222656,1,0,1,-2,-2,-4,-3,0,1757009435401626825
0,1.482087612,20250904141035409,None,12,229.87901306152344,-4,0,-3,1,3,1,4,-1,1757009435408928394
0,1.482304812,20250904141035409,None,12,229.87901306152344,-5,0,-1,-1,-2,-17,-5,0,1757009435409031867
0,1.497110844,20250904141035424,None,12,229.16510009765625,1,0,-1,-1,1,6,11,0,1757009435424009561
0,1.497236252,20250904141035424,None,12,229.16510009765625,6,0,0,-1,-1,-5,-7,0,1757009435424126863
0,1.5042254929999999,20250904141035431,None,12,229.16510009765625,0,-2,0,-1,-3,2,-7,2,1757009435431509494
0,1.504299641,20250904141035431,None,12,229.16510009765625,-5,0,2,1,5,1,-8,-8,1757009435431617259
0,1.511686087,20250904141035439,None,12,229.87901306152344,-6,-4,-2,-1,-13,-6,-6,0,1757009435438972949
0,1.5117630960000001,20250904141035439,None,12,229.87901306152344,1,-2,0,-1,-1,-2,-1,1,1757009435439114332
0,1.526673079,20250904141035454,None,12,228.45120239257812,-1,-2,2,2,1,5,0,3,1757009435453946352
0,1.526751042,20250904141035454,None,12,228.45120239257812,-1,-2,-2,-1,-1,-4,5,-5,1757009435454069614
0,1.53429699,20250904141035461,None,12,230.1169891357422,2,0,-2,-2,1,0,-11,0,1757009435461472749
0,1.534490585,20250904141035461,None,12,230.1169891357422,1,-1,-2,-1,2,-2,-4,2,1757009435461668252
0,1.54171586,20250904141035469,None,12,228.45120239257812,-3,1,-1,-3,-1,3,3,1,1757009435468952655
0,1.541865587,20250904141035469,None,12,228.45120239257812,-13,-3,2,-2,-3,1,1,-7,1757009435469090700
0,1.556977034,20250904141035484,None,12,228.45120239257812,7,-3,-5,-4,-5,-6,-7,1,1757009435484173536
0,1.557144642,20250904141035484,None,12,228.45120239257812,0,1,-1,0,-5,1,-1,-1,1757009435484324693
0,1.564288378,20250904141035491,None,12,228.45120239257812,-6,-1,0,1,4,5,5,-1,1757009435491512537
0,1.5648703579999999,20250904141035492,None,12,230.1169891357422,0,-2,0,-1,-6,-4,5,-3,1757009435491884469
0,1.571807623,20250904141035499,None,12,230.1169891357422,-3,1,1,-6,-2,-3,-10,0,1757009435499028205
0,1.5719332700000002,20250904141035499,None,12,230.1169891357422,-1,-1,-1,-4,-4,-1,0,-2,1757009435499193191
0,1.5868108269999999,20250904141035514,None,12,229.403076171875,0,-6,-2,-1,-4,0,0,2,1757009435514023542
0,1.5869529249999998,20250904141035514,None,12,229.403076171875,-2,-2,-1,0,0,-4,0,-7,1757009435514178037
0,1.594186783,20250904141035521,None,12,229.87901306152344,3,1,-3,0,3,5,5,-2,1757009435521446943
0,1.594287872,20250904141035521,None,12,229.87901306152344,1,-1,-2,-4,-6,14,-6,0,1757009435521569490
0,1.60163641,20250904141035529,None,12,228.92713928222656,-1,-2,-1,-2,-2,-31,-3,0,1757009435528948068
0,1.6017215249999999,20250904141035529,None,12,228.92713928222656,-1,-1,2,-1,0,4,-2,-3,1757009435529068946
0,1.6168015,20250904141035544,None,12,230.59292602539062,-6,-6,-5,-3,-2,-1,2,-4,1757009435544015407
0,1.616919279,20250904141035544,None,12,230.59292602539062,-1,0,0,0,1,3,3,-2,1757009435544138669
0,1.624205113,20250904141035551,None,12,228.45120239257812,-3,0,-2,-3,1,1,1,-1,1757009435551483392
0,1.624290705,20250904141035551,None,12,228.45120239257812,0,-3,1,1,-4,1,0,0,1757009435551614999
0,1.631956101,20250904141035559,None,12,230.35494995117188,0,-1,-2,0,-1,2,5,1,1757009435559051990
0,1.632129908,20250904141035559,None,12,230.35494995117188,-1,-2,-3,1,-1,-5,-4,-2,1757009435559214591
0,1.646807194,20250904141035574,None,12,228.6891632080078,-1,0,-5,-2,0,0,1,0,1757009435573979854
0,1.6471650599999998,20250904141035574,None,12,228.6891632080078,-1,-2,-1,0,1,-1,-3,0,1757009435574115753
0,1.6542434689999999,20250904141035581,None,12,230.1169891357422,5,1,0,1,-2,-5,-6,1,1757009435581461191
0,1.654378176,20250904141035581,None,12,230.1169891357422,-1,1,1,0,-3,-4,-11,1,1757009435581601858
0,1.662311554,20250904141035589,None,12,228.92713928222656,0,0,0,2,4,9,7,-3,1757009435589449882
0,1.662471533,20250904141035589,None,12,228.92713928222656,-5,-5,-2,-4,-7,-7,-3,1,1757009435589750766
0,1.677315235,20250904141035604,None,12,229.403076171875,2,4,1,1,1,4,0,3,1757009435604433298
0,1.677470207,20250904141035604,None,12,229.403076171875,1,-1,-1,-1,1,-8,-7,1,1757009435604642629
0,1.684716702,20250904141035612,None,12,229.403076171875,-5,-3,-3,2,3,-6,1,-1,1757009435611910581
0,1.6848831180000001,20250904141035612,None,12,229.403076171875,2,4,1,-4,-7,2,6,-2,1757009435612123250
0,1.692129851,20250904141035619,None,12,228.45120239257812,-9,-2,-1,-4,2,2,1,-5,1757009435619095087
0,1.692327023,20250904141035619,None,12,228.45120239257812,3,-2,-2,0,1,0,0,11,1757009435619268417
0,1.706905127,20250904141035634,None,12,228.6891632080078,0,0,1,-1,2,6,4,-1,1757009435633957862
0,1.707085371,20250904141035634,None,12,228.6891632080078,2,-1,1,3,4,23,-5,-2,1757009435634110450
0,1.714436054,20250904141035641,None,12,230.59292602539062,2,2,-3,-1,-2,-30,-1,0,1757009435641475677
0,1.7146155840000001,20250904141035642,None,12,230.59292602539062,-5,-1,-2,1,-4,6,0,-6,1757009435641599178
0,1.721942663,20250904141035649,None,12,230.59292602539062,-2,-3,-4,1,2,4,3,-2,1757009435648942947
0,1.722109079,20250904141035649,None,12,230.59292602539062,1,1,-2,-2,-2,-1,1,3,1757009435649055004
0,1.737046957,20250904141035664,None,12,230.35494995117188,-1,-5,-1,2,1,-3,0,-5,1757009435664003133
0,1.737224579,20250904141035664,None,12,230.35494995117188,-2,-3,-2,0,0,0,1,-1,1757009435664124965
0,1.744498015,20250904141035672,None,12,228.92713928222656,2,-4,-1,1,-5,1,-1,1,1757009435671527862
0,1.744700909,20250904141035672,None,12,228.92713928222656,-2,-3,1,-1,-1,-2,-3,2,1757009435671650648
0,1.752029896,20250904141035679,None,12,229.64105224609375,0,-3,-4,-3,1,1,-2,-1,1757009435678999185
0,1.7522087100000001,20250904141035679,None,12,229.64105224609375,-5,-1,0,-2,2,-6,0,-1,1757009435679117918
0,1.76715684,20250904141035694,None,12,229.64105224609375,-3,-3,-3,-2,-2,8,19,2,1757009435693960428
0,1.767393828,20250904141035694,None,12,229.64105224609375,2,-2,1,2,2,-9,-24,-3,1757009435694082975
0,1.774457693,20250904141035701,None,12,228.92713928222656,11,4,-1,-2,0,-5,-9,1,1757009435701479673
0,1.774882078,20250904141035702,None,12,228.92713928222656,-3,1,-3,-1,3,-2,0,-1,1757009435701670408
0,1.7818036080000001,20250904141035709,None,12,229.87901306152344,0,0,0,-1,-1,2,5,3,1757009435708983659
0,1.782094956,20250904141035709,None,12,229.87901306152344,1,-1,1,-3,-1,-3,7,-3,1757009435709337949
0,1.797128678,20250904141035724,None,12,230.35494995117188,0,1,-1,0,1,4,1,0,1757009435724217414
0,1.7973012929999999,20250904141035724,None,12,230.35494995117188,-3,-3,0,-2,-2,-10,-6,-1,1757009435724431514
0,1.8044765,20250904141035731,None,12,228.6891632080078,4,2,1,2,0,0,-2,3,1757009435731681346
0,1.8046431539999999,20250904141035732,None,12,228.6891632080078,-7,-1,0,0,-2,-5,-7,-5,1757009435731855630
0,1.811978579,20250904141035739,None,12,228.6891632080078,-2,1,1,-2,1,2,0,1,1757009435739188432
0,1.8120806219999999,20250904141035739,None,12,228.6891632080078,-5,2,-2,0,5,-1,-1,3,1757009435739407539
0,1.8269760609999999,20250904141035754,None,12,228.92713928222656,4,1,-1,-1,-4,0,6,-1,1757009435754143476
0,1.827099323,20250904141035754,None,12,228.92713928222656,-2,0,-4,1,2,14,3,-5,1757009435754356384
0,1.834458113,20250904141035761,None,12,229.64105224609375,-3,-2,-2,-2,-5,-23,-2,3,1757009435761683940
0,1.83455658,20250904141035762,None,12,229.64105224609375,-4,0,0,1,2,-1,-4,-4,1757009435761859178
0,1.841983795,20250904141035769,None,12,229.403076171875,-7,-3,-1,-2,0,2,4,-3,1757009435769171953
0,1.842113972,20250904141035769,None,12,229.403076171875,6,2,-1,-1,-1,-1,0,2,1757009435769386768
0,1.857094526,20250904141035784,None,12,229.16510009765625,-2,1,0,0,2,-3,-1,-2,1757009435784272909
0,1.857219696,20250904141035784,None,12,229.16510009765625,-2,-1,-1,-6,-5,-3,-3,-3,1757009435784522771
0,1.864332676,20250904141035791,None,12,230.35494995117188,0,-1,-3,0,-1,-2,-2,0,1757009435791557550
0,1.864452124,20250904141035791,None,12,230.35494995117188,-2,0,3,3,3,-3,4,-3,1757009435791728734
0,1.8717801569999999,20250904141035799,None,12,228.6891632080078,0,-1,-1,-4,5,1,4,1,1757009435798977375
0,1.871900559,20250904141035799,None,12,228.6891632080078,-1,-1,1,-1,1,4,5,0,1757009435799134016
0,1.886840582,20250904141035814,None,12,228.6891632080078,-4,-7,-2,-1,-10,-1,0,-3,1757009435814109325
0,1.886948824,20250904141035814,None,12,228.6891632080078,5,0,0,2,1,-1,-4,2,1757009435814260244
0,1.894231558,20250904141035821,None,12,228.6891632080078,-3,-2,-1,-2,-1,-1,-4,-1,1757009435821489095
0,1.894320011,20250904141035821,None,12,228.6891632080078,-1,-4,-1,-1,0,-2,-5,0,1757009435821618318
0,1.901718617,20250904141035829,None,12,230.35494995117188,1,0,-1,1,-1,-2,1,-3,1757009435828948736
0,1.901870728,20250904141035829,None,12,230.35494995117188,4,3,0,0,2,3,8,-4,1757009435829100131
0,1.916917086,20250904141035844,None,12,230.1169891357422,0,-1,2,-1,1,-2,-1,1,1757009435844115495
0,1.917466164,20250904141035844,None,12,230.1169891357422,-2,-2,3,-1,1,-1,-5,1,1757009435844282150
0,1.924669981,20250904141035852,None,12,229.64105224609375,3,0,2,0,-5,-5,-4,1,1757009435851528406
0,1.924989939,20250904141035852,None,12,229.64105224609375,-2,0,-3,2,-3,-2,0,-3,1757009435851649522
0,1.9319615369999998,20250904141035859,None,12,229.64105224609375,0,-2,2,1,0,6,6,-1,1757009435858990907
0,1.932068825,20250904141035859,None,12,229.64105224609375,1,0,0,-1,-1,15,-10,-3,1757009435859105110
0,1.9466950889999999,20250904141035874,None,12,230.1169891357422,2,0,-2,-1,0,-27,5,1,1757009435873953104
0,1.946807385,20250904141035874,None,12,230.1169891357422,2,-2,0,3,-1,11,3,2,1757009435874088764
0,1.954183579,20250904141035881,None,12,228.92713928222656,-3,-5,2,-3,1,1,-10,0,1757009435881463289
0,1.954287768,20250904141035881,None,12,228.92713928222656,-2,-2,-2,-1,-1,-2,-2,-4,1757009435881587982
0,1.9617342949999999,20250904141035889,None,12,230.35494995117188,0,1,0,1,3,-7,-3,1,1757009435888966798
0,1.9619193080000001,20250904141035889,None,12,230.35494995117188,-2,-3,-1,-3,0,-1,7,0,1757009435889185190
0,1.97693038,20250904141035904,None,12,228.6891632080078,1,-2,-2,-2,-1,8,-7,-2,1757009435904158353
0,1.977059364,20250904141035904,None,12,228.6891632080078,-4,-1,1,-1,1,3,-2,-1,1757009435904332399
0,1.984297514,20250904141035911,None,12,230.35494995117188,-4,2,-1,-3,-3,-6,0,-4,1757009435911549091
0,1.984442949,20250904141035911,None,12,230.35494995117188,0,1,1,-1,-3,0,-1,9,1757009435911695957
0,1.991822481,20250904141035919,None,12,228.6891632080078,0,-2,-2,2,-1,0,-3,-6,1757009435919045448
0,1.991937637,20250904141035919,None,12,228.6891632080078,3,1,-2,-2,-4,-10,-6,-2,1757009435919203281
0,2.006929398,20250904141035934,None,12,229.64105224609375,-1,-1,-1,-1,0,9,14,0,1757009435934131622
0,2.007076502,20250904141035934,None,12,229.64105224609375,-3,2,0,0,2,4,1,1,1757009435934337615
0,2.014238119,20250904141035941,None,12,229.403076171875,-1,-4,-2,-1,-6,-4,-1,-1,1757009435941524982
0,2.014316797,20250904141035941,None,12,229.403076171875,-1,-3,0,-4,-2,-1,-3,2,1757009435941664457
0,2.029297352,20250904141035956,None,12,229.64105224609375,-1,0,1,2,-1,4,6,1,1757009435956554412
0,2.029401541,20250904141035956,None,12,229.64105224609375,0,-3,-1,-2,2,-4,-5,-1,1757009435956697940
0,2.036710262,20250904141035964,None,12,228.6891632080078,-2,-2,-1,0,-4,-4,-2,-3,1757009435964016199
0,2.036825419,20250904141035964,None,12,228.6891632080078,-7,2,1,0,0,2,1,1,1757009435964126825
0,2.044322014,20250904141035971,None,12,228.6891632080078,2,3,1,-2,-2,-2,-3,-7,1757009435971560239
0,2.044496536,20250904141035971,None,12,228.6891632080078,-5,-3,0,0,-1,0,4,-3,1757009435971698522
0,2.051799536,20250904141035979,None,12,230.35494995117188,2,-1,2,-2,-1,1,2,2,1757009435979011297
0,2.051936865,20250904141035979,None,12,230.35494995117188,-1,-3,2,1,-1,6,-10,1,1757009435979156255
0,2.075014591,20250904141036002,None,12,228.21322631835938,-2,-2,-1,-3,2,-21,-1,0,1757009436002255439
0,2.075155974,20250904141036002,None,12,228.21322631835938,0,-3,-3,-4,-13,1,2,3,1757009436002408027
0,2.075612545,20250904141036003,None,12,228.21322631835938,-5,-6,-2,-3,0,6,0,-4,1757009436002942562
0,2.075697899,20250904141036003,None,12,228.21322631835938,9,1,-2,-1,4,6,2,1,1757009436003056526
0,2.08923626,20250904141036016,None,12,230.1169891357422,-2,-2,0,2,0,-3,-5,0,1757009436016497611
0,2.08935523,20250904141036016,None,12,230.1169891357422,-4,0,0,-6,-7,-6,-3,-3,1757009436016631364
0,2.096746683,20250904141036024,None,12,228.92713928222656,4,-2,-3,2,1,7,8,2,1757009436024019241
0,2.096868754,20250904141036024,None,12,228.92713928222656,-3,-3,-1,1,1,2,2,0,1757009436024164199
0,2.104246378,20250904141036031,None,12,229.16510009765625,-3,-2,-5,1,-2,-1,-2,-2,1757009436031477451
0,2.1044998169999998,20250904141036031,None,12,229.16510009765625,-5,1,1,3,3,-3,-4,-1,1757009436031660795
0,2.111601591,20250904141036039,None,12,229.64105224609375,3,-1,-2,0,2,0,-2,-3,1757009436038931131
0,2.111680746,20250904141036039,None,12,229.64105224609375,-3,-1,1,-2,-3,2,3,10,1757009436039042472
0,2.126804114,20250904141036054,None,12,228.6891632080078,-8,1,-3,-2,-1,-5,-7,0,1757009436054047584
0,2.126912117,20250904141036054,None,12,228.6891632080078,3,-4,-1,-3,0,-4,-4,-3,1757009436054188489
0,2.134305239,20250904141036061,None,12,230.59292602539062,1,-1,-1,3,-5,1,1,-1,1757009436061542987
0,2.134402752,20250904141036061,None,12,230.59292602539062,-7,-2,-3,-3,-8,-3,1,-4,1757009436061674594
0,2.149379969,20250904141036076,None,12,230.59292602539062,2,-1,-1,1,-2,-1,-10,-3,1757009436076546669
0,2.149528504,20250904141036077,None,12,230.59292602539062,-1,-1,1,2,0,0,0,2,1757009436076692819
0,2.156791449,20250904141036084,None,12,228.6891632080078,-1,-1,-4,-2,-3,-4,-3,-6,1757009436083986282
0,2.156939507,20250904141036084,None,12,228.6891632080078,3,1,-2,-3,-3,1,-3,-1,1757009436084113359
0,2.164348841,20250904141036091,None,12,228.6891632080078,-4,-2,-3,-1,-1,-3,-1,-2,1757009436091608762
0,2.164471388,20250904141036091,None,12,228.6891632080078,-1,-2,-1,-2,-6,-1,1,0,1757009436091728925
0,2.179776669,20250904141036107,None,12,229.403076171875,-3,-3,1,2,0,2,2,-6,1757009436106968164
0,2.179911614,20250904141036107,None,12,229.403076171875,-6,0,2,0,2,-3,-2,0,1757009436107125043
0,2.18671298,20250904141036114,None,12,229.64105224609375,6,4,-1,1,-3,-11,13,2,1757009436113960981
0,2.186849117,20250904141036114,None,12,229.64105224609375,-4,-2,0,0,2,1,-22,-4,1757009436114084243
0,2.194356442,20250904141036121,None,12,229.64105224609375,-12,-3,-2,-3,-4,-1,-2,-1,1757009436121552228
0,2.19453764,20250904141036122,None,12,229.64105224609375,4,-1,1,-1,-3,-5,-3,2,1757009436121840238
0,2.209326983,20250904141036136,None,12,230.35494995117188,-3,0,0,1,2,0,9,1,1757009436136602163
0,2.209417343,20250904141036136,None,12,230.35494995117188,4,0,1,3,-1,1,-2,-3,1757009436136751413
0,2.217009783,20250904141036144,None,12,230.35494995117188,1,-1,0,3,4,5,4,0,1757009436144257307
0,2.217120886,20250904141036144,None,12,230.35494995117188,-4,-2,-2,0,-5,-3,-3,-2,1757009436144475221
0,2.224540711,20250904141036152,None,12,228.45120239257812,-3,2,-2,-3,-3,-7,-5,-3,1757009436151830673
0,2.224708796,20250904141036152,None,12,228.45120239257812,-6,-1,-1,-1,-5,2,-1,-2,1757009436152031183
0,2.24784255,20250904141036175,None,12,230.1169891357422,0,2,-2,2,0,1,0,1,1757009436175040721
0,2.247967482,20250904141036175,None,12,230.1169891357422,2,3,1,-1,0,2,3,-2,1757009436175275087
0,2.248533726,20250904141036176,None,12,230.1169891357422,0,-2,0,-4,0,-4,-7,-2,1757009436175834894
0,2.248646021,20250904141036176,None,12,230.1169891357422,-8,-6,-4,0,-1,-5,-5,0,1757009436175981521
0,2.254279614,20250904141036181,None,12,230.1169891357422,-4,-2,-2,0,-1,0,-1,-2,1757009436181531429
0,2.254353285,20250904141036181,None,12,230.1169891357422,-2,2,1,-3,-3,2,2,-3,1757009436181691408
0,2.269200802,20250904141036196,None,12,229.64105224609375,2,2,1,3,5,0,-3,-2,1757009436196479558
0,2.269286633,20250904141036196,None,12,229.64105224609375,-4,-3,-3,-1,-5,2,5,-7,1757009436196602582
0,2.27664423,20250904141036204,None,12,229.64105224609375,0,-1,-1,-1,-2,-2,-4,4,1757009436203941345
0,2.276718855,20250904141036204,None,12,229.64105224609375,-4,-4,0,-1,0,-1,-6,-3,1757009436204048633
0,2.2841646669999998,20250904141036211,None,12,228.92713928222656,-8,-2,0,0,-3,3,6,-2,1757009436211477041
0,2.284266234,20250904141036211,None,12,228.92713928222656,3,0,0,-3,0,1,0,0,1757009436211595773
0,2.299250126,20250904141036226,None,12,230.35494995117188,-9,-2,-2,-4,-5,-2,-1,-3,1757009436226493358
0,2.299376965,20250904141036226,None,12,230.35494995117188,4,1,-4,-3,2,19,-1,-3,1757009436226610422
0,2.306712389,20250904141036234,None,12,228.6891632080078,1,4,0,-3,-2,-29,1,-1,1757009436233992338
0,2.306828737,20250904141036234,None,12,228.6891632080078,1,3,0,0,3,6,-4,-4,1757009436234113216
0,2.314239741,20250904141036241,None,12,230.35494995117188,-6,-4,-1,-1,0,-4,-5,-3,1757009436241517066
0,2.314332008,20250904141036241,None,12,230.35494995117188,-1,-3,1,-1,0,3,8,0,1757009436241635322
0,2.329210043,20250904141036256,None,12,228.45120239257812,-5,0,-1,-2,-2,4,0,-4,1757009436256383657
0,2.329366207,20250904141036256,None,12,228.45120239257812,-2,-1,-3,-2,0,2,-2,1,1757009436256479263
0,2.336678982,20250904141036264,None,12,230.35494995117188,-1,1,-4,-1,-5,-4,-1,-1,1757009436263931274
0,2.336853504,20250904141036264,None,12,230.35494995117188,-2,-2,-2,-2,-4,1,3,-3,1757009436264045238
0,2.344189406,20250904141036271,None,12,228.92713928222656,-4,-1,-1,1,0,-13,-8,-4,1757009436271501779
0,2.344274521,20250904141036271,None,12,228.92713928222656,0,-1,-2,0,0,6,3,-1,1757009436271616458
0,2.359230042,20250904141036286,None,12,229.16510009765625,0,-2,-1,0,-1,5,3,1,1757009436286488533
0,2.359351874,20250904141036286,None,12,229.16510009765625,-1,-1,-1,-1,-2,-1,-3,-2,1757009436286633491
0,2.366660833,20250904141036294,None,12,229.16510009765625,1,-3,2,-1,0,-2,0,-3,1757009436293968439
0,2.366742849,20250904141036294,None,12,229.16510009765625,-9,-2,1,0,2,-3,-4,-6,1757009436294080018
0,2.374178171,20250904141036301,None,12,229.16510009765625,4,3,-4,-5,-2,-2,-1,2,1757009436301508903
0,2.374739885,20250904141036302,None,12,229.16510009765625,4,2,0,1,-4,4,8,2,1757009436301619291
0,2.389379501,20250904141036316,None,12,228.6891632080078,-7,1,0,-1,1,1,6,-2,1757009436316491365
0,2.389639855,20250904141036317,None,12,228.6891632080078,-2,-2,2,0,-1,-4,-9,-9,1757009436316621780
0,2.397003651,20250904141036324,None,12,230.35494995117188,-6,-3,-2,-4,-1,-6,3,9,1757009436324038028
0,2.397214174,20250904141036324,None,12,230.35494995117188,0,-4,-1,0,-6,0,-4,0,1757009436324237346
0,2.404279709,20250904141036331,None,12,228.45120239257812,-2,-2,-2,2,4,-3,-3,-2,1757009436331483364
0,2.404401779,20250904141036331,None,12,228.45120239257812,-5,-2,-2,-4,1,15,5,-2,1757009436331632852
0,2.419369936,20250904141036346,None,12,230.1169891357422,3,-5,1,0,-1,-21,1,4,1757009436346550941
0,2.419502497,20250904141036346,None,12,230.1169891357422,-1,-2,-1,-3,-12,-3,-5,-4,1757009436346701622
0,2.42687273,20250904141036354,None,12,229.16510009765625,-3,1,2,1,0,3,1,0,1757009436354055404
0,2.42702198,20250904141036354,None,12,229.16510009765625,1,-1,-3,0,3,-1,-5,-1,1757009436354203939
0,2.43437767,20250904141036361,None,12,229.64105224609375,-5,-2,0,0,0,1,1,0,1757009436361550092
0,2.434516907,20250904141036362,None,12,229.64105224609375,1,1,-2,-1,-4,3,4,1,1757009436361694097
0,2.44934392,20250904141036376,None,12,229.16510009765625,2,-1,0,-2,1,1,-1,2,1757009436376520156
0,2.449490786,20250904141036376,None,12,229.16510009765625,-3,-3,-1,-5,-7,-5,-3,-2,1757009436376662731
0,2.456823111,20250904141036384,None,12,229.16510009765625,0,-1,-2,-1,3,1,-6,1,1757009436384006977
0,2.456961393,20250904141036384,None,12,229.16510009765625,-3,1,2,1,2,-2,0,0,1757009436384147882
0,2.471892119,20250904141036399,None,12,228.45120239257812,-1,-1,-7,-3,-4,0,-6,1,1757009436399071693
0,2.472038031,20250904141036399,None,12,228.45120239257812,9,1,2,1,0,1,-5,1,1757009436399245023
0,2.4793281560000002,20250904141036406,None,12,230.35494995117188,0,-1,3,-3,0,-5,-5,-1,1757009436406530857
0,2.47947073,20250904141036406,None,12,230.35494995117188,-4,-1,1,-1,-1,3,8,-2,1757009436406700611
0,2.486740828,20250904141036414,None,12,230.35494995117188,6,0,-2,-3,-4,-2,-1,3,1757009436413978815
0,2.4868779180000002,20250904141036414,None,12,230.35494995117188,3,2,-3,1,-2,5,3,3,1757009436414114236
0,2.494371176,20250904141036421,None,12,228.45120239257812,0,-2,-1,-1,-3,-6,-1,3,1757009436421615123
0,2.494508982,20250904141036421,None,12,228.45120239257812,0,-4,-2,-4,-1,-1,-1,-3,1757009436421786069
0,2.509315729,20250904141036436,None,12,228.45120239257812,-4,-3,-3,-4,-1,0,1,-3,1757009436436446666
0,2.509604216,20250904141036437,None,12,228.45120239257812,1,1,-4,-4,-1,-1,0,2,1757009436436559438
0,2.516653061,20250904141036444,None,12,230.1169891357422,-2,-3,2,0,1,-5,4,1,1757009436443884134
0,2.516813517,20250904141036444,None,12,230.1169891357422,-3,0,-1,-1,-1,-2,-12,-3,1757009436443989753
0,2.524201155,20250904141036451,None,12,230.1169891357422,-1,1,0,-3,0,3,2,1,1757009436451490879
0,2.524294615,20250904141036451,None,12,230.1169891357422,0,-2,-2,-3,-7,-9,-7,3,1757009436451600313
0,2.539284706,20250904141036466,None,12,229.403076171875,-2,-4,0,3,3,21,2,-1,1757009436466491699
0,2.539440394,20250904141036466,None,12,229.403076171875,-3,-1,-6,0,1,-32,2,-2,1757009436466614246
0,2.5467453,20250904141036474,None,12,229.87901306152344,-5,0,1,-1,-7,4,1,1,1757009436473973989
0,2.546880484,20250904141036474,None,12,229.87901306152344,-1,1,2,0,-3,2,0,5,1757009436474105596
0,2.554248333,20250904141036481,None,12,228.45120239257812,-4,-4,-1,1,2,3,2,-8,1757009436481500864
0,2.554375649,20250904141036481,None,12,228.45120239257812,-1,2,-1,-2,-1,-3,1,-6,1757009436481623649
0,2.569270849,20250904141036496,None,12,230.1169891357422,-3,-2,-4,1,1,-4,-3,6,1757009436496511459
0,2.569401026,20250904141036496,None,12,230.1169891357422,-2,-7,1,-3,1,-3,-2,0,1757009436496641635
0,2.576824904,20250904141036504,None,12,228.45120239257812,-7,3,-2,-1,-1,0,-4,-6,1757009436503932714
0,2.5770576,20250904141036504,None,12,228.45120239257812,4,2,-1,-1,1,-8,-5,-2,1757009436504068136
0,2.5843505860000002,20250904141036511,None,12,230.35494995117188,-11,-3,1,-1,-2,3,8,1,1757009436511534929
0,2.584496975,20250904141036511,None,12,230.35494995117188,6,1,-4,-2,1,-2,-10,0,1757009436511675834
0,2.599438191,20250904141036526,None,12,230.1169891357422,-1,-1,-1,1,-2,-2,-2,0,1757009436526582002
0,2.599598408,20250904141036527,None,12,230.1169891357422,-5,-2,1,-4,-8,5,4,1,1757009436526790618
0,2.606922627,20250904141036534,None,12,229.16510009765625,-3,-3,0,2,1,2,0,0,1757009436534049510
0,2.6071088319999998,20250904141036534,None,12,229.16510009765625,-1,-3,1,2,4,-1,-3,-1,1757009436534198284
0,2.614444018,20250904141036541,None,12,229.16510009765625,-4,-4,-2,-2,1,-3,0,-1,1757009436541557788
0,2.614622831,20250904141036542,None,12,229.16510009765625,-4,0,1,-3,-1,1,5,-3,1757009436541800737
0,2.629821301,20250904141036557,None,12,229.87901306152344,0,-3,1,-3,-3,-3,-7,-3,1757009436556978940
0,2.629984141,20250904141036557,None,12,229.87901306152344,-4,-4,0,0,0,0,2,0,1757009436557117938
0,2.636975765,20250904141036564,None,12,228.6891632080078,2,0,-1,1,-1,-1,5,0,1757009436563945055
0,2.637145281,20250904141036564,None,12,228.6891632080078,1,-1,-2,-3,-2,-2,-3,-2,1757009436564088106
0,2.644324541,20250904141036571,None,12,228.6891632080078,1,-2,0,1,3,-3,-4,-1,1757009436571479558
0,2.644560337,20250904141036572,None,12,228.6891632080078,-11,-4,2,-1,0,24,-1,1,1757009436571624994
0,2.659269333,20250904141036586,None,12,228.21322631835938,2,1,-1,-2,0,-26,4,-1,1757009436586519956
0,2.6594100000000003,20250904141036586,None,12,228.21322631835938,-3,-3,-2,0,-1,7,-4,-1,1757009436586647033
0,2.666695595,20250904141036594,None,12,230.35494995117188,3,-4,-3,-2,2,7,3,2,1757009436593996286
0,2.66679883,20250904141036594,None,12,230.35494995117188,-1,-4,-2,-2,-9,-3,-6,-3,1757009436594106674
0,2.674175978,20250904141036601,None,12,228.45120239257812,-1,2,-1,-5,-4,-5,-6,-1,1757009436601495742
0,2.674253225,20250904141036601,None,12,228.45120239257812,-5,-4,0,1,0,0,2,-1,1757009436601623773
0,2.689216375,20250904141036616,None,12,230.1169891357422,2,1,0,-2,1,4,-2,-4,1757009436616489887
0,2.6893134119999997,20250904141036616,None,12,230.1169891357422,-2,0,-2,0,0,4,1,-2,1757009436616607666
0,2.696983338,20250904141036624,None,12,229.16510009765625,0,-1,-5,-1,1,-6,-6,-1,1757009436624192476
0,2.697085381,20250904141036624,None,12,229.16510009765625,-1,-3,1,-1,0,-3,-3,-1,1757009436624404430
0,2.704286814,20250904141036631,None,12,229.64105224609375,-3,0,0,-3,1,2,1,1,1757009436631528615
0,2.704360962,20250904141036631,None,12,229.64105224609375,2,-2,1,-4,1,-1,0,0,1757009436631688356
0,2.7195682530000003,20250904141036647,None,12,228.6891632080078,-1,-1,1,0,-5,-4,1,-2,1757009436646553993
0,2.719748974,20250904141036647,None,12,228.6891632080078,1,0,-2,-3,-4,3,5,-2,1757009436646707296
0,2.727061987,20250904141036654,None,12,230.1169891357422,-4,-1,-3,-5,1,-3,-10,-2,1757009436654022932
0,2.727276087,20250904141036654,None,12,230.1169891357422,2,-1,-3,3,4,-3,-2,2,1757009436654180526
0,2.734416485,20250904141036661,None,12,230.1169891357422,-1,-1,1,-4,-3,-1,-1,-1,1757009436661480903
0,2.734572172,20250904141036662,None,12,230.1169891357422,-5,0,1,1,-1,0,2,-2,1757009436661599397
0,2.749168158,20250904141036676,None,12,230.59292602539062,0,-3,-2,-1,-2,-1,-1,-1,1757009436676362276
0,2.749245405,20250904141036676,None,12,230.59292602539062,0,0,0,0,2,0,-1,-5,1757009436676456212
0,2.756779432,20250904141036684,None,12,228.45120239257812,-2,-1,-1,2,2,3,2,0,1757009436683886051
0,2.756963968,20250904141036684,None,12,228.45120239257812,-4,-1,2,-1,-1,-11,-11,-5,1757009436684012651
0,2.771714926,20250904141036699,None,12,229.87901306152344,-4,-2,-3,0,-1,1,-3,-3,1757009436698943376
0,2.771866799,20250904141036699,None,12,229.87901306152344,-2,1,0,0,-5,-2,2,1,1757009436699065923
0,2.779163599,20250904141036706,None,12,228.92713928222656,-3,1,-3,1,0,1,6,0,1757009436706460714
0,2.779266358,20250904141036706,None,12,228.92713928222656,-8,-4,0,-1,1,16,-3,-2,1757009436706562757
0,2.786813498,20250904141036714,None,12,229.64105224609375,8,0,-2,-3,2,-31,0,-1,1757009436714012145
0,2.786953926,20250904141036714,None,12,229.64105224609375,-6,-3,-4,-3,-12,6,4,-2,1757009436714150428
0,2.794252873,20250904141036721,None,12,229.64105224609375,0,2,1,-2,0,3,3,2,1757009436721506118
0,2.794382811,20250904141036721,None,12,229.64105224609375,-2,-4,-3,-1,1,-3,-6,2,1757009436721627712
0,2.809390783,20250904141036736,None,12,228.92713928222656,-3,0,1,-3,-1,-1,1,-3,1757009436736619949
0,2.809508801,20250904141036736,None,12,228.92713928222656,0,1,-1,-2,-1,2,-4,5,1757009436736778497
0,2.816868067,20250904141036744,None,12,230.35494995117188,0,0,1,-1,-1,-3,0,1,1757009436744071483
0,2.816986084,20250904141036744,None,12,230.35494995117188,-4,-2,-2,-2,-4,-2,-3,-5,1757009436744177579
0,2.831749916,20250904141036759,None,12,230.35494995117188,-1,0,2,0,0,4,2,-1,1757009436759023666
0,2.8318700789999998,20250904141036759,None,12,230.35494995117188,0,0,-4,0,0,-3,-5,-2,1757009436759159088
0,2.8392589089999998,20250904141036766,None,12,228.45120239257812,1,-1,1,2,-1,-7,1,1,1757009436766490936
0,2.839371205,20250904141036766,None,12,228.45120239257812,-1,2,0,-3,0,-1,0,-1,1757009436766644477
0,2.846716643,20250904141036774,None,12,228.45120239257812,-3,-2,2,0,-1,4,-2,1,1757009436773957014
0,2.846853018,20250904141036774,None,12,228.45120239257812,0,-2,-1,-2,-3,0,-1,1,1757009436774102210
0,2.854259968,20250904141036781,None,12,230.1169891357422,-2,2,-3,-2,-1,1,6,0,1757009436781502962
0,2.854368687,20250904141036781,None,12,230.1169891357422,0,0,-1,-3,3,-6,-12,0,1757009436781624317
0,2.869345427,20250904141036796,None,12,229.87901306152344,1,-3,-2,-2,1,-1,0,1,1757009436796519517
0,2.8699367049999998,20250904141036797,None,12,229.87901306152344,-1,-4,-3,1,-4,4,-3,-4,1757009436796661853
0,2.877188921,20250904141036804,None,12,229.64105224609375,7,5,1,-1,0,-1,9,1,1757009436803993225
0,2.877384901,20250904141036804,None,12,229.64105224609375,-2,2,-2,-2,-12,-4,-5,-3,1757009436804118871
0,2.892208576,20250904141036819,None,12,229.16510009765625,-1,0,4,-2,4,-1,-3,0,1757009436819041013
0,2.89240551,20250904141036819,None,12,229.16510009765625,-9,-4,-1,-1,0,2,0,-3,1757009436819171905
0,2.899645329,20250904141036827,None,12,230.1169891357422,7,1,-2,-1,0,4,7,3,1757009436826512813
0,2.900048971,20250904141036827,None,12,230.1169891357422,-1,-4,-3,-2,0,-4,-10,0,1757009436826639413
0,2.907160759,20250904141036834,None,12,228.21322631835938,5,1,-1,-2,1,-7,-3,1,1757009436834008693
0,2.907422304,20250904141036834,None,12,228.21322631835938,-1,2,-3,-4,-2,-9,-7,-4,1757009436834124803
0,2.914479256,20250904141036841,None,12,230.35494995117188,-1,-1,0,0,-2,2,1,-4,1757009436841615438
0,2.9146473410000002,20250904141036842,None,12,230.35494995117188,-2,0,-2,-2,1,5,6,4,1757009436841759681
0,2.929850578,20250904141036857,None,12,228.45120239257812,0,1,-1,0,-3,-5,-3,2,1757009436856593608
0,2.930088043,20250904141036857,None,12,228.45120239257812,-3,-3,1,3,-2,6,8,1,1757009436856810808
0,2.936721087,20250904141036864,None,12,230.59292602539062,2,-2,1,0,0,-4,-6,-1,1757009436863958597
0,2.936873675,20250904141036864,None,12,230.59292602539062,1,1,0,1,1,-2,-5,-3,1757009436864080190
0,2.9517793660000002,20250904141036879,None,12,229.87901306152344,-6,0,-2,1,1,0,-1,0,1757009436879014253
0,2.951895237,20250904141036879,None,12,229.87901306152344,0,-6,-3,-4,-1,0,3,3,1757009436879168748
0,2.959258795,20250904141036886,None,12,229.403076171875,1,-3,-3,-1,-2,3,4,-3,1757009436886508226
0,2.959358931,20250904141036886,None,12,229.403076171875,-3,1,-1,-2,-10,-5,-5,1,1757009436886655092
0,2.966660738,20250904141036894,None,12,229.403076171875,-3,-2,2,0,0,-4,0,0,1757009436893978357
0,2.9667410849999998,20250904141036894,None,12,229.403076171875,-3,-2,-3,0,-4,2,4,-1,1757009436894088983
0,2.974283219,20250904141036901,None,12,229.403076171875,2,3,-1,-2,8,4,2,-3,1757009436901537895
0,2.9743745329999998,20250904141036901,None,12,229.403076171875,1,3,-2,-1,-4,0,-7,5,1757009436901671886
0,2.9892036920000002,20250904141036916,None,12,228.6891632080078,3,0,0,0,0,-8,-7,-8,1757009436916477203
0,2.98988843,20250904141036917,None,12,228.6891632080078,-9,-4,-1,1,-2,-2,-3,-2,1757009436916605710
0,2.997148514,20250904141036924,None,12,230.35494995117188,6,2,-2,-3,0,4,7,2,1757009436923961400
0,2.997349501,20250904141036924,None,12,230.35494995117188,-3,-6,1,-2,0,-1,-2,2,1757009436924075365
0,3.012096405,20250904141036939,None,12,228.21322631835938,2,-2,1,0,-2,-2,-5,-2,1757009436938951015
0,3.01234436,20250904141036939,None,12,228.21322631835938,-1,-3,0,-3,-1,3,2,3,1757009436939072608
0,3.019749642,20250904141036947,None,12,230.1169891357422,-1,0,-3,0,1,0,0,-1,1757009436946699380
0,3.020000219,20250904141036947,None,12,230.1169891357422,-3,-4,2,-3,-1,11,2,0,1757009436946922540
0,3.02729249,20250904141036954,None,12,228.92713928222656,3,-1,-3,-1,1,-21,-3,-4,1757009436954064846
0,3.027493715,20250904141036954,None,12,228.92713928222656,1,1,-4,-4,-4,6,0,-4,1757009436954221963
0,3.034613133,20250904141036962,None,12,229.87901306152344,-1,0,0,0,1,3,3,-1,1757009436961474657
0,3.034946203,20250904141036962,None,12,229.87901306152344,1,-1,1,0,1,-2,1,-1,1757009436961585044
0,3.049679279,20250904141036977,None,12,229.16510009765625,-3,-4,-3,1,0,0,-2,-2,1757009436976513624
0,3.049901724,20250904141036977,None,12,229.16510009765625,-1,-2,2,1,2,5,0,2,1757009436976648092
0,3.057137013,20250904141036984,None,12,229.16510009765625,-1,1,1,-2,-8,-6,-9,-5,1757009436983952522
0,3.057335377,20250904141036984,None,12,229.16510009765625,-2,-3,3,-1,-1,3,3,-1,1757009436984090328
0,3.072152138,20250904141036999,None,12,228.6891632080078,-1,-1,-1,0,0,1,0,-5,1757009436998964548
0,3.072332382,20250904141036999,None,12,228.6891632080078,-3,0,-2,-2,0,3,2,5,1757009436999103307
0,3.079291105,20250904141037006,None,12,230.1169891357422,-3,-2,-1,-4,-4,-1,-8,5,1757009437006497383
0,3.079399586,20250904141037006,None,12,230.1169891357422,1,0,-3,-1,4,-5,0,-5,1757009437006633996
0,3.086707115,20250904141037014,None,12,228.45120239257812,-7,-1,0,0,2,-1,-1,-3,1757009437013999462
0,3.086796284,20250904141037014,None,12,228.45120239257812,8,1,2,-2,-1,1,2,3,1757009437014109611
0,3.094302893,20250904141037021,None,12,228.45120239257812,-3,3,-1,0,0,0,-3,-1,1757009437021507263
0,3.094434738,20250904141037021,None,12,228.45120239257812,-6,-3,-1,2,-4,-6,0,-2,1757009437021628856
0,3.109263659,20250904141037036,None,12,228.45120239257812,-3,-2,-3,-3,-5,2,0,-2,1757009437036494493
0,3.109358788,20250904141037036,None,12,228.45120239257812,-5,-1,-1,-2,-3,-1,-4,2,1757009437036630630
0,3.116792441,20250904141037044,None,12,230.1169891357422,5,-1,2,0,-1,3,9,0,1757009437044067144
0,3.116893292,20250904141037044,None,12,230.1169891357422,-4,0,1,-3,-3,-5,-4,0,1757009437044200897
0,3.132128477,20250904141037059,None,12,229.16510009765625,2,2,-1,1,0,-8,-14,0,1757009437059054613
0,3.13233161,20250904141037059,None,12,229.16510009765625,1,-2,0,0,-2,0,2,-2,1757009437059181451
0,3.1392591,20250904141037066,None,12,229.403076171875,1,-1,0,-4,-5,6,-3,-2,1757009437066537618
0,3.139347553,20250904141037066,None,12,229.403076171875,-1,-1,-5,-2,-1,-14,3,-3,1757009437066654920
0,3.146848679,20250904141037074,None,12,229.87901306152344,1,-1,0,2,4,6,1,2,1757009437074121952
0,3.146924019,20250904141037074,None,12,229.87901306152344,1,0,2,3,-1,2,2,0,1757009437074246168
0,3.162012577,20250904141037089,None,12,230.1169891357422,-2,-1,-3,-5,-3,-1,-5,-5,1757009437089166641
0,3.162292481,20250904141037089,None,12,230.1169891357422,-2,-2,-2,0,0,-4,-3,0,1757009437089454650
0,3.16928196,20250904141037096,None,12,230.1169891357422,10,1,-3,2,-3,-1,-1,0,1757009437096507787
0,3.169420958,20250904141037096,None,12,230.1169891357422,2,-2,1,-2,2,2,3,1,1757009437096651077
0,3.177092791,20250904141037104,None,12,228.21322631835938,-1,-2,0,0,-3,-1,1,-2,1757009437104149341
0,3.177252054,20250904141037104,None,12,228.21322631835938,-13,-5,-2,0,0,-4,-4,-1,1757009437104251623
0,3.19193387,20250904141037119,None,12,228.6891632080078,4,0,-4,-3,-1,4,6,1,1757009437119062900
0,3.192067623,20250904141037119,None,12,228.6891632080078,4,2,0,-3,0,-3,-8,-3,1757009437119301080
0,3.199360609,20250904141037126,None,12,230.1169891357422,-4,-2,-3,-3,-4,-3,-1,3,1757009437126618146
0,3.1994507309999998,20250904141037126,None,12,230.1169891357422,3,-3,-1,2,-2,2,8,0,1757009437126757144
0,3.207220554,20250904141037134,None,12,229.403076171875,5,1,-1,-2,1,5,2,-1,1757009437134105682
0,3.207446575,20250904141037134,None,12,229.403076171875,-3,0,-3,3,-3,-5,-6,3,1757009437134221553
0,3.222113609,20250904141037149,None,12,229.403076171875,-4,-5,-7,0,-1,-6,-3,3,1757009437149142265
0,3.222288132,20250904141037149,None,12,229.403076171875,-7,1,-2,-2,-2,-3,-3,-4,1757009437149264335
0,3.229360581,20250904141037156,None,12,229.64105224609375,4,-3,0,-2,-1,7,4,2,1757009437156605243
0,3.229474783,20250904141037156,None,12,229.64105224609375,-5,-2,2,-1,-2,-5,-2,0,1757009437156720161
0,3.236885071,20250904141037164,None,12,228.92713928222656,-5,-2,-3,-3,-2,-6,-4,-1,1757009437164099693
0,3.23702836,20250904141037164,None,12,228.92713928222656,2,-2,-2,0,0,0,-2,0,1757009437164207458
0,3.251875401,20250904141037179,None,12,230.1169891357422,1,0,0,-1,1,-1,-1,-1,1757009437179080724
0,3.252078295,20250904141037179,None,12,230.1169891357422,-2,-1,2,-4,-9,18,5,-4,1757009437179211854
0,3.259236336,20250904141037186,None,12,228.6891632080078,0,-1,-1,0,0,-30,-12,1,1757009437186495542
0,3.259328842,20250904141037186,None,12,228.6891632080078,-4,-2,-2,2,3,9,-3,0,1757009437186594486
0,3.2667360309999998,20250904141037194,None,12,230.59292602539062,2,-2,-1,-5,-3,-1,1,0,1757009437193982601
0,3.266858339,20250904141037194,None,12,230.59292602539062,-3,-4,-1,-2,-2,8,2,-1,1757009437194111585
0,3.281811953,20250904141037209,None,12,230.35494995117188,-4,-2,-1,0,-3,1,-2,-3,1757009437209006071
0,3.281945944,20250904141037209,None,12,230.35494995117188,-3,0,0,0,3,-2,1,4,1757009437209132194
0,3.289238691,20250904141037216,None,12,230.35494995117188,-1,5,2,0,-1,-7,-1,-2,1757009437216492176
0,3.289333105,20250904141037216,None,12,230.35494995117188,-13,-3,-2,-3,-4,2,-1,-5,1757009437216603040
0,3.29665637,20250904141037224,None,12,228.92713928222656,4,2,1,-1,0,3,5,1,1757009437223889350
0,3.29674077,20250904141037224,None,12,228.92713928222656,1,0,-2,-3,1,-1,-3,2,1757009437224004507
0,3.311948061,20250904141037239,None,12,229.403076171875,0,-3,1,-2,0,-3,-1,2,1757009437239027023
0,3.312161684,20250904141037239,None,12,229.403076171875,-3,-1,-3,2,-1,-4,-2,-4,1757009437239213228
0,3.319453001,20250904141037246,None,12,228.92713928222656,1,0,-4,-3,-6,1,2,0,1757009437246614694
0,3.319626093,20250904141037247,None,12,228.92713928222656,-7,-1,0,1,2,-5,-6,-4,1757009437246783494
0,3.326942682,20250904141037254,None,12,230.35494995117188,2,0,2,0,-2,4,10,5,1757009437254035711
0,3.327209711,20250904141037254,None,12,230.35494995117188,-1,-2,-3,-3,-3,-2,1,-1,1757009437254178047
0,3.341889858,20250904141037269,None,12,228.21322631835938,-2,-1,1,-1,-2,3,-1,0,1757009437269072294
0,3.342045069,20250904141037269,None,12,228.21322631835938,-3,2,0,-2,-1,-3,0,-6,1757009437269251823
0,3.349315882,20250904141037276,None,12,230.1169891357422,-7,1,-2,0,-1,-4,-5,-4,1757009437276473999
0,3.3495473860000002,20250904141037277,None,12,230.1169891357422,-4,0,0,0,2,2,0,-1,1757009437276798009
0,3.357329607,20250904141037284,None,12,228.45120239257812,-2,-1,-3,-3,-4,1,-1,-1,1757009437284508466
0,3.357455492,20250904141037284,None,12,228.45120239257812,2,0,1,-1,0,-4,-1,4,1757009437284677267
0,3.371712923,20250904141037299,None,12,230.35494995117188,-5,-2,0,-1,0,-2,-5,2,1757009437298966884
0,3.371837616,20250904141037299,None,12,230.35494995117188,5,-6,-2,-3,-1,31,7,1,1757009437299104452
0,3.379227877,20250904141037306,None,12,228.92713928222656,3,2,-1,1,1,-28,-6,0,1757009437306513309
0,3.379324913,20250904141037306,None,12,228.92713928222656,-3,1,4,0,0,4,-7,0,1757009437306639194
0,3.386571884,20250904141037314,None,12,229.87901306152344,-2,-1,0,1,0,8,5,-1,1757009437313902378
0,3.386650562,20250904141037314,None,12,229.87901306152344,4,-3,-1,-2,1,1,-3,3,1757009437314012527
0,3.40168047,20250904141037329,None,12,229.16510009765625,1,2,1,-3,-1,-2,1,-1,1757009437328959703
0,3.401794195,20250904141037329,None,12,229.16510009765625,9,-1,-1,0,2,0,-5,-1,1757009437329097270
0,3.409196854,20250904141037336,None,12,229.16510009765625,0,-3,-2,2,-5,-1,0,-4,1757009437336493015
0,3.409330368,20250904141037336,None,12,229.16510009765625,-4,-3,-2,-1,0,4,1,-2,1757009437336617231
0,3.4168944359999998,20250904141037344,None,12,230.35494995117188,-1,-3,-2,-1,-2,1,3,-1,1757009437343999862
0,3.417075157,20250904141037344,None,12,230.35494995117188,-5,-1,-2,-1,0,1,-2,1,1757009437344134330
0,3.431737661,20250904141037359,None,12,230.83090209960938,4,-5,1,-1,-3,-3,1,0,1757009437358944654
0,3.432047844,20250904141037359,None,12,230.83090209960938,-2,0,1,0,-3,-6,-12,-3,1757009437359080076
0,3.439408302,20250904141037366,None,12,228.45120239257812,-7,0,-2,-3,1,0,-1,-2,1757009437366620779
0,3.439540386,20250904141037367,None,12,228.45120239257812,2,-1,1,-1,0,-3,-1,-5,1757009437366811275
0,3.446914435,20250904141037374,None,12,230.1169891357422,-3,-2,-1,-3,-2,1,7,3,1757009437374154329
0,3.447014332,20250904141037374,None,12,230.1169891357422,1,-3,-1,2,-2,-2,-4,-5,1757009437374328613
0,3.461851835,20250904141037389,None,12,228.92713928222656,-4,1,-1,-3,0,2,0,2,1757009437389067411
0,3.461962938,20250904141037389,None,12,228.92713928222656,-1,-2,-3,2,1,8,1,-1,1757009437389241695
0,3.469302654,20250904141037396,None,12,229.87901306152344,-8,-2,1,-2,0,-5,-5,1,1757009437396525382
0,3.469436169,20250904141037396,None,12,229.87901306152344,2,0,-1,0,-4,1,0,2,1757009437396660566
0,3.47685647,20250904141037404,None,12,229.403076171875,-2,0,-1,-3,-2,5,4,-2,1757009437404052972
0,3.476980925,20250904141037404,None,12,229.403076171875,-5,-5,-2,-1,2,-4,-5,0,1757009437404205799
0,3.491734743,20250904141037419,None,12,229.16510009765625,4,5,0,2,1,2,4,0,1757009437418937444
0,3.491875172,20250904141037419,None,12,229.16510009765625,-4,-4,0,-1,4,-2,3,-2,1757009437419083833
0,3.499168396,20250904141037426,None,12,230.1169891357422,-6,-3,0,3,2,25,-3,1,1757009437426446676
0,3.499264956,20250904141037426,None,12,230.1169891357422,-1,-3,-2,-2,-3,-29,8,-5,1757009437426582336
0,3.506898642,20250904141037434,None,12,228.92713928222656,-2,-3,-3,-2,-5,1,-12,-1,1757009437434137344
0,3.507117033,20250904141037434,None,12,228.92713928222656,1,1,-2,1,1,4,-3,4,1757009437434279680
0,3.5217814450000002,20250904141037449,None,12,228.45120239257812,-2,0,3,0,-5,4,4,-2,1757009437448989152
0,3.521915436,20250904141037449,None,12,228.45120239257812,0,-1,-3,-3,-2,2,4,-1,1757009437449132680
0,3.529175758,20250904141037456,None,12,230.35494995117188,1,-4,2,0,2,1,-1,-1,1757009437456454753
0,3.529274941,20250904141037456,None,12,230.35494995117188,-1,0,-2,-3,0,-3,0,2,1757009437456572771
0,3.536663532,20250904141037464,None,12,230.35494995117188,-3,-1,0,2,-5,-4,-6,-2,1757009437463944673
0,3.536776543,20250904141037464,None,12,230.35494995117188,1,0,-2,1,-3,4,1,2,1757009437464059352
0,3.551738978,20250904141037479,None,12,229.87901306152344,0,0,-2,2,1,2,-1,-1,1757009437478978157
0,3.5518918040000003,20250904141037479,None,12,229.87901306152344,-5,-3,0,0,0,-5,-1,-8,1757009437479114294
0,3.559223652,20250904141037486,None,12,229.403076171875,9,2,-1,1,0,-3,-4,9,1757009437486455202
0,3.559360981,20250904141037486,None,12,229.403076171875,-3,-2,-3,3,-1,2,2,0,1757009437486572980
0,3.566737652,20250904141037494,None,12,229.16510009765625,-4,-3,2,0,3,-3,-3,-8,1757009437493998765
0,3.56684804,20250904141037494,None,12,229.16510009765625,4,2,2,1,-4,-2,-4,-3,1757009437494113206
0,3.581856251,20250904141037509,None,12,229.87901306152344,-1,-1,-4,-3,-7,0,3,2,1757009437509060859
0,3.581990004,20250904141037509,None,12,229.87901306152344,0,3,1,-2,3,1,0,-1,1757009437509254932
0,3.589193344,20250904141037516,None,12,228.6891632080078,-2,-2,4,-1,0,3,-2,2,1757009437516481876
0,3.589297772,20250904141037516,None,12,228.6891632080078,-7,-1,-1,1,-2,-4,-3,-8,1757009437516607284
0,3.596653938,20250904141037524,None,12,230.1169891357422,-1,-2,0,-4,2,0,-6,-2,1757009437523924827
0,3.596769095,20250904141037524,None,12,230.1169891357422,3,-1,2,1,1,-2,6,-1,1757009437524063587
0,3.6117239,20250904141037539,None,12,228.21322631835938,-4,-2,-2,-2,-3,4,-3,-3,1757009437538953065
0,3.611854315,20250904141037539,None,12,228.21322631835938,-1,-5,-1,0,-2,-3,-6,-3,1757009437539089918
0,3.619082213,20250904141037546,None,12,230.1169891357422,-5,-1,-1,0,-2,-3,-3,-1,1757009437546389818
0,3.619156599,20250904141037546,None,12,230.1169891357422,-2,1,-1,-1,-1,-4,-4,0,1757009437546502828
0,3.626606465,20250904141037554,None,12,228.45120239257812,0,0,-3,1,2,26,3,-1,1757009437553894996
0,3.626669884,20250904141037554,None,12,228.45120239257812,-2,0,-2,1,0,-28,4,1,1757009437554027557
0,3.6418130399999997,20250904141037569,None,12,229.403076171875,0,0,2,0,1,2,-12,-4,1757009437568998575
0,3.641970635,20250904141037569,None,12,229.403076171875,-1,2,-3,-4,-6,-1,-2,-1,1757009437569168329
0,3.649427652,20250904141037576,None,12,229.403076171875,-1,-3,-1,1,-5,1,-2,-1,1757009437576642513
0,3.64952898,20250904141037577,None,12,229.403076171875,0,0,0,-3,4,-1,1,-2,1757009437576850175
0,3.657102108,20250904141037584,None,12,229.16510009765625,4,1,0,-1,4,8,9,0,1757009437584086894
0,3.657494068,20250904141037584,None,12,229.16510009765625,-2,-2,-1,0,-1,2,1,0,1757009437584349393
0,3.6718537810000003,20250904141037599,None,12,228.6891632080078,-4,-3,-3,0,-1,-1,-3,-3,1757009437598997831
0,3.672016859,20250904141037599,None,12,228.6891632080078,7,4,2,-2,3,-5,-1,-2,1757009437599156379
0,3.679295063,20250904141037606,None,12,230.35494995117188,2,0,2,4,2,11,8,3,1757009437606514453
0,3.679444075,20250904141037606,None,12,230.35494995117188,6,-1,1,-1,-7,-9,-16,0,1757009437606668710
0,3.686647177,20250904141037614,None,12,228.45120239257812,-1,-3,-1,-2,-1,-4,-3,2,1757009437613909244
0,3.68678999,20250904141037614,None,12,228.45120239257812,-4,-1,-1,0,-1,-2,0,-1,1757009437614026308
0,3.701734066,20250904141037629,None,12,230.1169891357422,-3,-4,0,-1,3,-1,3,-3,1757009437628970384
0,3.7019283769999998,20250904141037629,None,12,230.1169891357422,0,-1,0,2,2,0,-3,-1,1757009437629092454
0,3.70925808,20250904141037636,None,12,228.45120239257812,-4,-3,-1,-5,0,-5,-4,-7,1757009437636496782
0,3.709384918,20250904141037636,None,12,228.45120239257812,0,-3,1,-1,0,-5,6,13,1757009437636631250
0,3.716773272,20250904141037644,None,12,230.35494995117188,-1,-4,-2,1,-1,8,4,-3,1757009437644000530
0,3.716906548,20250904141037644,None,12,230.35494995117188,10,4,-2,-1,4,1,-3,6,1757009437644133090
0,3.731781483,20250904141037659,None,12,229.403076171875,0,2,-3,1,-1,0,-3,-4,1757009437658980131
0,3.73193121,20250904141037659,None,12,229.403076171875,-3,-4,-2,-1,4,-4,-1,-3,1757009437659157276
0,3.739233256,20250904141037666,None,12,229.64105224609375,-4,-6,-2,0,-4,-4,-1,-3,1757009437666470766
0,3.739366055,20250904141037666,None,12,229.64105224609375,-5,2,1,-3,-2,0,-1,-3,1757009437666640043
0,3.746728182,20250904141037674,None,12,229.64105224609375,2,2,-2,1,1,-4,-4,1,1757009437673971652
0,3.74687767,20250904141037674,None,12,229.64105224609375,-1,1,-2,0,-3,-1,0,2,1757009437674150228
0,3.761830568,20250904141037689,None,12,230.1169891357422,4,-2,2,0,1,7,-1,-4,1757009437689044713
0,3.762024403,20250904141037689,None,12,230.1169891357422,1,1,-3,0,1,-19,3,-3,1757009437689270734
0,3.769293547,20250904141037696,None,12,230.1169891357422,-3,-3,-1,-3,-7,3,0,-2,1757009437696532487
0,3.769427061,20250904141037696,None,12,230.1169891357422,1,2,0,-1,2,2,-6,1,1757009437696703433
0,3.776744604,20250904141037704,None,12,228.6891632080078,4,1,-3,0,-8,5,6,1,1757009437704017877
0,3.7769634720000003,20250904141037704,None,12,228.6891632080078,-1,0,1,2,1,-2,0,0,1757009437704244136
0,3.791687012,20250904141037719,None,12,228.45120239257812,-6,-4,1,-1,-1,4,5,-1,1757009437718886375
0,3.791805983,20250904141037719,None,12,228.45120239257812,-1,-4,-2,-1,1,1,-11,1,1757009437719014883
0,3.799166441,20250904141037726,None,12,230.1169891357422,-4,0,-7,-1,0,-2,1,0,1757009437726431131
0,3.799288511,20250904141037726,None,12,230.1169891357422,-1,0,-1,2,-1,-4,2,-2,1757009437726587057
0,3.806516171,20250904141037733,None,12,230.1169891357422,-2,-2,1,0,2,0,0,-1,1757009437733848333
0,3.806577206,20250904141037734,None,12,230.1169891357422,2,-2,3,0,2,0,0,1,1757009437733953475
0,3.821777105,20250904141037749,None,12,229.64105224609375,-2,-5,0,-2,-2,-4,-1,2,1757009437749033689
0,3.821895838,20250904141037749,None,12,229.64105224609375,2,3,-2,-1,-1,-3,-4,-2,1757009437749205589
0,3.829263926,20250904141037756,None,12,229.87901306152344,3,0,-2,-1,-5,4,2,0,1757009437756519079
0,3.829342842,20250904141037756,None,12,229.87901306152344,-2,-1,0,-5,-1,2,3,1,1757009437756671905
0,3.836664915,20250904141037764,None,12,229.16510009765625,-2,2,-3,2,1,3,3,-7,1757009437763956069
0,3.83677125,20250904141037764,None,12,229.16510009765625,3,0,1,0,0,-6,-6,6,1757009437764068841
0,3.851594925,20250904141037779,None,12,230.35494995117188,-3,-4,-5,-1,-1,-4,-10,-5,1757009437778907299
0,3.851718664,20250904141037779,None,12,230.35494995117188,0,-5,-2,-7,3,0,2,2,1757009437779015779
0,3.85916996,20250904141037786,None,12,228.92713928222656,-1,2,-1,0,4,1,-1,1,1757009437786476135
0,3.859278679,20250904141037786,None,12,228.92713928222656,-2,-1,-1,-1,0,-3,7,1,1757009437786603450
0,3.866625786,20250904141037794,None,12,230.59292602539062,0,-3,0,2,0,-5,-5,-6,1757009437793914556
0,3.866718769,20250904141037794,None,12,230.59292602539062,0,3,1,1,-3,2,-6,-2,1757009437794027805
0,3.881665707,20250904141037809,None,12,230.35494995117188,-8,-3,-2,-1,-2,0,0,0,1757009437808948278
0,3.881797075,20250904141037809,None,12,230.35494995117188,4,-2,-1,0,-2,19,1,1,1757009437809063196
0,3.8892447949999998,20250904141037816,None,12,230.35494995117188,-1,-3,1,-2,-9,-28,-4,-3,1757009437816533088
0,3.88934803,20250904141037816,None,12,230.35494995117188,2,2,-1,-1,0,13,7,-2,1757009437816657066
0,3.896770477,20250904141037824,None,12,229.16510009765625,-2,-1,-2,-1,3,1,0,4,1757009437824007272
0,3.896883011,20250904141037824,None,12,229.16510009765625,0,3,2,2,4,5,2,-2,1757009437824144363
0,3.9117431639999998,20250904141037839,None,12,229.403076171875,-6,-5,-3,-3,0,-2,4,-3,1757009437838973045
0,3.911859512,20250904141037839,None,12,229.403076171875,-5,2,-2,-4,0,-2,-2,6,1757009437839125871
0,3.919146299,20250904141037846,None,12,229.403076171875,1,-3,0,1,0,-2,-3,-3,1757009437846457958
0,3.919250012,20250904141037846,None,12,229.403076171875,-3,0,0,1,2,4,-1,-2,1757009437846577644
0,3.926645279,20250904141037854,None,12,229.87901306152344,-3,0,-1,2,3,-3,1,2,1757009437853932857
0,3.926743269,20250904141037854,None,12,229.87901306152344,-13,-3,-1,-6,-4,2,5,-4,1757009437854088783
0,3.941807509,20250904141037869,None,12,228.6891632080078,7,2,1,-4,-2,-5,-6,2,1757009437869045734
0,3.941912174,20250904141037869,None,12,228.6891632080078,0,-1,-3,0,4,2,1,-2,1757009437869198083
0,3.949204922,20250904141037876,None,12,230.35494995117188,-4,-2,-1,-1,-6,-1,2,0,1757009437876494884
0,3.949284554,20250904141037876,None,12,230.35494995117188,1,-3,0,-7,-1,2,3,1,1757009437876629352
0,3.956717491,20250904141037884,None,12,228.21322631835938,-5,-1,-5,1,-4,-4,-5,-7,1757009437883987903
0,3.956822872,20250904141037884,None,12,228.21322631835938,4,0,1,3,-1,-5,-6,2,1757009437884130716
0,3.971732855,20250904141037899,None,12,228.6891632080078,-2,-1,-5,1,-1,1,3,0,1757009437898999214
0,3.9718651769999997,20250904141037899,None,12,228.6891632080078,-1,-1,0,-4,2,-1,-4,-2,1757009437899158716
0,3.9792630669999998,20250904141037906,None,12,228.6891632080078,4,-3,-1,-2,2,2,5,-4,1757009437906518697
0,3.979377747,20250904141037906,None,12,228.6891632080078,0,-2,1,1,1,0,1,-2,1757009437906675815
0,3.986657858,20250904141037914,None,12,229.87901306152344,-1,-1,1,-3,0,0,-6,-2,1757009437913945198
0,3.986773968,20250904141037914,None,12,229.87901306152344,-1,0,-3,-1,-1,0,0,0,1757009437914070844
0,4.001771927,20250904141037929,None,12,228.92713928222656,0,-1,-1,0,1,-7,-2,-2,1757009437929007053
0,4.001874924,20250904141037929,None,12,228.92713928222656,-2,2,-2,-3,-2,6,2,-2,1757009437929147720
0,4.009260178,20250904141037936,None,12,229.87901306152344,2,1,-2,-1,1,5,2,-5,1757009437936517953
0,4.009344816,20250904141037936,None,12,229.87901306152344,-3,-1,0,2,-1,-5,-7,6,1757009437936664104
0,4.016770363,20250904141037944,None,12,229.87901306152344,-1,-2,-2,-1,3,1,2,-3,1757009437944004535
0,4.016869068,20250904141037944,None,12,229.87901306152344,-2,1,-1,0,-4,-4,-3,-5,1757009437944140434
0,4.031607628,20250904141037959,None,12,230.59292602539062,2,2,-1,0,4,-8,-12,-4,1757009437958907842
0,4.031698942,20250904141037959,None,12,230.59292602539062,2,-2,0,6,-5,-3,11,0,1757009437959028244
0,4.039168358,20250904141037966,None,12,228.6891632080078,-7,-5,-1,-3,0,4,-1,1,1757009437966467618
0,4.03927207,20250904141037966,None,12,228.6891632080078,6,-1,0,-2,6,5,-2,-1,1757009437966589450
0,4.046639681,20250904141037974,None,12,230.59292602539062,-3,-4,-2,0,-1,0,0,0,1757009437973953962
0,4.046731949,20250904141037974,None,12,230.59292602539062,0,0,1,1,-3,-2,-1,-1,1757009437974087238
0,4.061795235,20250904141037989,None,12,229.16510009765625,-2,-2,-6,-1,-1,-2,-3,-2,1757009437989042520
0,4.061925173,20250904141037989,None,12,229.16510009765625,-4,1,2,-1,2,6,4,0,1757009437989186525
0,4.069231749,20250904141037996,None,12,229.87901306152344,0,3,-1,1,0,-3,1,0,1757009437996502161
0,4.069333077,20250904141037996,None,12,229.87901306152344,-3,0,-4,-1,1,0,3,-3,1757009437996628284
0,4.084227562,20250904141038011,None,12,229.64105224609375,-9,-6,-3,-2,-1,-4,-6,-2,1757009438011488914
0,4.084332705,20250904141038011,None,12,229.64105224609375,6,1,-4,-2,-3,3,5,1,1757009438011631011
0,4.091690064,20250904141038019,None,12,229.64105224609375,2,3,0,1,2,-1,-9,0,1757009438018953800
0,4.091822386,20250904141038019,None,12,229.64105224609375,-3,2,1,2,-4,-7,2,-2,1757009438019075870
0,4.099189043,20250904141038026,None,12,229.87901306152344,0,-2,-1,0,-1,4,10,1,1757009438026465177
0,4.099306584,20250904141038026,None,12,229.87901306152344,-4,-3,-1,-5,-3,-4,-8,0,1757009438026589155
0,4.122379303,20250904141038049,None,12,228.6891632080078,-5,0,-2,1,-1,-1,-2,0,1757009438049636363
0,4.122505188,20250904141038049,None,12,228.6891632080078,-3,0,1,-1,0,-3,2,-2,1757009438049773931
0,4.123058796,20250904141038050,None,12,228.6891632080078,2,-1,0,0,-1,-9,-3,-2,1757009438050404548
0,4.123151779,20250904141038050,None,12,228.6891632080078,-2,0,-3,0,-2,6,2,4,1757009438050513267
0,4.1291008,20250904141038056,None,12,230.59292602539062,-2,0,-3,0,2,0,-1,-2,1757009438056414604
0,4.129200697,20250904141038056,None,12,230.59292602539062,-4,-2,-1,-3,-2,-7,3,-1,1757009438056520700
0,4.144266844,20250904141038071,None,12,228.45120239257812,10,4,0,2,5,5,1,2,1757009438071514129
0,4.144425154,20250904141038071,None,12,228.45120239257812,-1,-3,-2,-2,-4,3,-1,-4,1757009438071633815
0,4.151874542,20250904141038079,None,12,230.1169891357422,0,-1,2,-1,-1,-3,0,-1,1757009438079044342
0,4.152050018,20250904141038079,None,12,230.1169891357422,-2,3,-2,1,2,24,-4,-1,1757009438079184055
0,4.159310818,20250904141038086,None,12,229.403076171875,-5,-1,3,-2,-2,-31,-3,-1,1757009438086535930
0,4.159458399,20250904141038086,None,12,229.403076171875,-2,-2,0,0,1,7,-3,1,1757009438086667060
0,4.174343109,20250904141038101,None,12,229.64105224609375,-1,-3,1,3,1,2,2,2,1757009438101524114
0,4.174585581,20250904141038102,None,12,229.64105224609375,3,-1,1,1,-4,-3,-3,1,1757009438101671457
0,4.181746483,20250904141038109,None,12,229.87901306152344,-2,-1,-1,-1,0,1,0,6,1757009438108984947
0,4.181944609,20250904141038109,None,12,229.87901306152344,-2,0,-2,-2,1,0,-5,-6,1757009438109117746
0,4.189204931,20250904141038116,None,12,228.92713928222656,3,0,0,-1,0,4,0,-2,1757009438116479158
0,4.189343453,20250904141038116,None,12,228.92713928222656,-3,0,-1,1,-4,-3,-4,1,1757009438116609096
0,4.20441699,20250904141038131,None,12,228.6891632080078,3,0,-4,0,3,1,5,-1,1757009438131565332
0,4.204565764,20250904141038132,None,12,228.6891632080078,-6,-1,1,-1,-7,-4,-3,0,1757009438131738424
0,4.21991539,20250904141038147,None,12,230.59292602539062,4,1,-1,-3,-2,1,-1,-1,1757009438147115707
0,4.220052719,20250904141038147,None,12,230.59292602539062,0,0,0,-2,1,-7,-2,2,1757009438147253990
0,4.220645666,20250904141038148,None,12,228.45120239257812,-3,-3,-4,-1,-1,-3,-6,-2,1757009438147908926
0,4.220789671,20250904141038148,None,12,228.45120239257812,-4,-4,-1,-2,1,0,-3,-1,1757009438148082733
0,4.234295845,20250904141038161,None,12,230.1169891357422,-1,-4,1,1,0,1,-2,0,1757009438161485671
0,4.234429598,20250904141038161,None,12,230.1169891357422,-1,-3,-5,-5,-1,-2,2,-1,1757009438161638736
0,4.241772413,20250904141038169,None,12,229.403076171875,7,0,0,3,2,1,1,-5,1757009438168967247
0,4.241929531,20250904141038169,None,12,229.403076171875,0,-1,-2,-2,-2,-4,5,4,1757009438169102668
0,4.249239445,20250904141038176,None,12,229.403076171875,3,0,-3,-2,0,1,2,-4,1757009438176483869
0,4.249345064,20250904141038176,None,12,229.403076171875,-2,-1,-2,3,3,-3,-7,-2,1757009438176656723
0,4.264268875,20250904141038191,None,12,229.87901306152344,1,0,-1,-3,-5,-1,-3,3,1757009438191472053
0,4.264399052,20250904141038191,None,12,229.87901306152344,1,0,0,-1,0,2,4,-1,1757009438191651821
0,4.271744251,20250904141038199,None,12,228.92713928222656,-1,-1,-2,-3,0,0,1,-4,1757009438198998689
0,4.271864653,20250904141038199,None,12,228.92713928222656,-8,-3,2,0,-1,1,5,1,1757009438199133634
0,4.27923727,20250904141038206,None,12,230.1169891357422,1,0,-3,-1,1,18,2,4,1757009438206491470
0,4.279377461,20250904141038206,None,12,230.1169891357422,-3,-2,-2,2,-5,-37,-10,-4,1757009438206612586
0,4.294254542,20250904141038221,None,12,228.21322631835938,-1,-2,1,-3,1,5,2,-2,1757009438221535205
0,4.294450283,20250904141038221,None,12,228.21322631835938,-1,1,-2,-4,-1,2,-2,-1,1757009438221671342
0,4.301812649,20250904141038229,None,12,230.35494995117188,3,-2,2,2,-1,-3,-4,-1,1757009438229032516
0,4.301904678,20250904141038229,None,12,230.35494995117188,-1,0,0,2,0,6,6,-3,1757009438229188442
0,4.309160948,20250904141038236,None,12,228.92713928222656,-9,-3,-5,-4,-4,-4,-1,-2,1757009438236420869
0,4.309261084,20250904141038236,None,12,228.92713928222656,8,2,-1,-3,-2,-3,1,-1,1757009438236521005
0,4.324268103,20250904141038251,None,12,229.16510009765625,-1,0,2,-1,-4,2,2,0,1757009438251503467
0,4.324410439,20250904141038251,None,12,229.16510009765625,-4,-3,-1,1,-4,1,-5,-4,1757009438251630067
0,4.331735611,20250904141038259,None,12,229.87901306152344,5,1,-2,1,-1,-2,-2,-1,1757009438258979082
0,4.331901789,20250904141038259,None,12,229.87901306152344,0,1,2,2,2,0,1,0,1757009438259097099
0,4.339199066,20250904141038266,None,12,229.87901306152344,-3,-2,-1,2,-4,2,4,-5,1757009438266468286
0,4.339313507,20250904141038266,None,12,229.87901306152344,3,1,-1,-2,-2,-7,-4,-4,1757009438266581296
0,4.354243279,20250904141038281,None,12,229.16510009765625,3,-1,0,0,0,1,-1,-3,1757009438281462430
0,4.354431868,20250904141038281,None,12,229.16510009765625,2,3,-1,1,0,6,0,6,1757009438281581401
0,4.361707926,20250904141038289,None,12,230.1169891357422,-1,0,-1,-1,0,-4,-3,-2,1757009438288945198
0,4.361943245,20250904141038289,None,12,230.1169891357422,-9,-1,-2,-4,-2,-2,1,2,1757009438289060592
0,4.369133949,20250904141038296,None,12,228.6891632080078,12,2,3,-3,4,-1,-3,-1,1757009438296440124
0,4.369244814,20250904141038296,None,12,228.6891632080078,-5,-4,-2,-3,-6,3,0,4,1757009438296543598
0,4.384228468,20250904141038311,None,12,230.35494995117188,0,0,0,1,2,0,-4,0,1757009438311463117
0,4.384365559,20250904141038311,None,12,230.35494995117188,1,-3,-3,-4,-10,-2,0,0,1757009438311575651
0,4.391723633,20250904141038319,None,12,228.92713928222656,-3,-1,-2,-1,0,1,3,-2,1757009438318959951
0,4.391868353,20250904141038319,None,12,228.92713928222656,-2,-3,2,-1,1,-9,-4,-1,1757009438319133520
0,4.399104595,20250904141038326,None,12,230.1169891357422,-3,-1,-1,0,-3,2,1,0,1757009438326390266
0,4.399227619,20250904141038326,None,12,230.1169891357422,2,1,0,0,0,3,7,0,1757009438326525211
0,4.414346457,20250904141038341,None,12,229.16510009765625,-2,0,1,1,1,22,-15,-2,1757009438341529846
0,4.414486408,20250904141038341,None,12,229.16510009765625,1,-5,-1,2,0,-28,2,0,1757009438341693162
0,4.421859265,20250904141038349,None,12,229.64105224609375,-2,-3,-3,-1,-1,6,0,0,1757009438349066972
0,4.421953917,20250904141038349,None,12,229.64105224609375,3,-1,-4,-3,-1,2,-1,0,1757009438349259853
0,4.4292428489999995,20250904141038356,None,12,229.403076171875,0,0,-3,1,-2,-2,-5,-3,1757009438356456041
0,4.429365397,20250904141038356,None,12,229.403076171875,-11,-2,0,-1,0,-1,1,3,1757009438356586217
0,4.444282055,20250904141038371,None,12,230.35494995117188,6,3,0,1,0,-2,-1,3,1757009438371504068
0,4.444389343,20250904141038371,None,12,230.35494995117188,-2,0,-2,-2,-4,-7,-4,-3,1757009438371636390
0,4.451704741,20250904141038379,None,12,230.35494995117188,-1,-1,-3,-2,-4,3,6,-4,1757009438378966331
0,4.451837301,20250904141038379,None,12,230.35494995117188,-1,-1,-1,1,1,2,-6,-1,1757009438379092931
0,4.459198237,20250904141038386,None,12,228.45120239257812,-4,0,-1,-2,1,1,4,1,1757009438386466503
0,4.459394455,20250904141038386,None,12,228.45120239257812,0,-4,0,2,0,-3,-3,-2,1757009438386619806
0,4.474324227,20250904141038401,None,12,228.45120239257812,3,-1,-1,0,-2,-2,0,0,1757009438401583433
0,4.474420786,20250904141038401,None,12,228.45120239257812,-10,-4,-2,1,-1,0,0,-3,1757009438401727437
0,4.48183775,20250904141038409,None,12,230.35494995117188,6,-3,-1,1,1,7,6,2,1757009438409103155
0,4.481922627,20250904141038409,None,12,230.35494995117188,-8,-2,0,1,-1,-2,1,-5,1757009438409246444
0,4.489211798,20250904141038416,None,12,228.92713928222656,-1,1,-3,-5,-3,-3,-7,5,1757009438416527509
0,4.489316702,20250904141038416,None,12,228.92713928222656,0,1,-1,-2,-1,-2,0,2,1757009438416656970
0,4.50490737,20250904141038432,None,12,229.87901306152344,1,-3,-1,-2,0,-1,0,-4,1757009438432072162
0,4.505072832,20250904141038432,None,12,229.87901306152344,-1,1,-1,-4,-3,-1,-2,-5,1757009438432322502
0,4.511796713,20250904141038439,None,12,229.403076171875,1,1,0,1,2,-6,-2,-1,1757009438438981771
0,4.511969328,20250904141038439,None,12,229.403076171875,-3,-4,-3,-3,-4,-3,-5,-2,1757009438439106702
0,4.519167185,20250904141038446,None,12,229.403076171875,1,-1,0,1,-1,8,4,1,1757009438446471691
0,4.5192825800000005,20250904141038446,None,12,229.403076171875,-2,1,3,-2,2,-2,-5,-1,1757009438446582317
0,4.534204483,20250904141038461,None,12,229.64105224609375,1,-2,-2,-1,-8,-1,-3,2,1757009438461471557
0,4.534337759,20250904141038461,None,12,229.64105224609375,-2,-1,-1,2,4,-5,1,3,1757009438461585760
0,4.541740418,20250904141038469,None,12,228.6891632080078,0,2,-4,-3,-1,3,4,-1,1757009438468977689
0,4.541883707,20250904141038469,None,12,228.6891632080078,-1,-2,-2,0,-1,18,-4,-1,1757009438469101428
0,4.549224854,20250904141038476,None,12,230.35494995117188,2,1,0,0,0,-27,3,2,1757009438476475477
0,4.549355507,20250904141038476,None,12,230.35494995117188,2,1,-1,0,-6,4,-5,2,1757009438476604461
0,4.564215899,20250904141038491,None,12,230.59292602539062,-8,2,-1,1,1,-1,-7,-4,1757009438491483926
0,4.564340353,20250904141038491,None,12,230.59292602539062,9,1,1,0,2,6,10,2,1757009438491606473
0,4.571632624,20250904141038499,None,12,230.59292602539062,2,2,-2,0,-1,0,-5,-4,1757009438498943090
0,4.571723461,20250904141038499,None,12,230.59292602539062,-3,-2,-1,-1,1,-4,1,1,1757009438499047994
0,4.579231978,20250904141038506,None,12,228.6891632080078,-6,0,0,3,-1,-2,-1,0,1757009438506433725
0,4.579410792,20250904141038506,None,12,228.6891632080078,-2,1,-2,3,-2,0,1,-1,1757009438506558418
0,4.594236374,20250904141038521,None,12,229.16510009765625,1,1,2,-1,0,-2,-4,-2,1757009438521454572
0,4.594427586,20250904141038521,None,12,229.16510009765625,2,1,0,0,0,2,4,3,1757009438521593809
0,4.601842165,20250904141038529,None,12,229.403076171875,-4,-5,-3,-2,0,-4,-6,-2,1757009438529085159
0,4.601985455,20250904141038529,None,12,229.403076171875,-7,-2,-1,-3,-2,-1,-4,-6,1757009438529204845
0,4.60924387,20250904141038536,None,12,229.403076171875,-1,2,1,2,2,2,0,-1,1757009438536510467
0,4.609393835,20250904141038536,None,12,229.403076171875,1,-1,-2,-2,1,-1,-3,-2,1757009438536616563
0,4.624421835,20250904141038551,None,12,228.92713928222656,-5,1,-3,-3,-3,-6,-6,4,1757009438551622390
0,4.624583244,20250904141038552,None,12,228.92713928222656,-3,0,-1,0,-3,-2,-2,-7,1757009438551755666
0,4.631817103,20250904141038559,None,12,230.59292602539062,-7,-2,-1,0,-2,-2,6,-2,1757009438559075117
0,4.631959915,20250904141038559,None,12,230.59292602539062,4,-2,2,-2,-2,3,2,-1,1757009438559197187
0,4.639420748,20250904141038566,None,12,228.6891632080078,-1,-1,-4,2,0,-5,-6,-2,1757009438566583156
0,4.639817,20250904141038567,None,12,228.6891632080078,-1,2,-2,-2,0,5,3,1,1757009438566818475
0,4.654319525,20250904141038581,None,12,230.59292602539062,-5,2,-3,-4,-5,-7,-6,-3,1757009438581490516
0,4.654558182,20250904141038582,None,12,230.59292602539062,-3,1,-1,0,-2,3,-6,-4,1757009438581673145
0,4.661710262,20250904141038589,None,12,228.6891632080078,-1,1,-1,-1,-1,0,-1,2,1757009438588953971
0,4.661870718,20250904141038589,None,12,228.6891632080078,0,-1,2,2,-3,-2,5,-1,1757009438589084625
0,4.669211865,20250904141038596,None,12,230.1169891357422,-2,-4,0,-1,-1,3,-2,-3,1757009438596453428
0,4.669332028,20250904141038596,None,12,230.1169891357422,-3,0,0,-4,0,3,-2,-1,1757009438596606731
0,4.684296608,20250904141038611,None,12,229.64105224609375,2,-1,2,0,2,-15,2,-2,1757009438611518621
0,4.684457779,20250904141038611,None,12,229.64105224609375,-1,-2,-1,1,0,2,-4,-2,1757009438611689567
0,4.69179821,20250904141038619,None,12,229.64105224609375,-2,0,-3,-3,-5,2,1,-3,1757009438619013309
0,4.691966534,20250904141038619,None,12,229.64105224609375,3,0,-1,-1,1,-3,-8,2,1757009438619215726
0,4.699181795,20250904141038626,None,12,229.64105224609375,3,1,0,1,1,2,-2,-4,1757009438626497268
0,4.6992623810000005,20250904141038626,None,12,229.64105224609375,-1,-1,-1,0,2,-1,-1,1,1757009438626618623
0,4.714358568,20250904141038641,None,12,230.1169891357422,-2,-2,0,-1,2,-1,0,-2,1757009438641496896
0,4.714503765,20250904141038641,None,12,230.1169891357422,3,-5,0,-5,-8,-2,-1,-1,1757009438641645669
0,4.721627712,20250904141038649,None,12,228.45120239257812,0,1,-1,-3,0,-2,2,1,1757009438648894548
0,4.721718073,20250904141038649,None,12,228.45120239257812,-4,1,-2,2,2,0,-10,-4,1757009438649032354
0,4.729236841,20250904141038656,None,12,228.45120239257812,2,-3,0,1,5,3,6,-1,1757009438656448602
0,4.72938323,20250904141038656,None,12,228.45120239257812,-3,-2,1,-3,-14,-4,-1,9,1757009438656594276
0,4.744241715,20250904141038671,None,12,228.6891632080078,-3,-2,1,1,1,0,-5,-6,1757009438671460628
0,4.744370461,20250904141038671,None,12,228.6891632080078,0,0,-3,-2,-2,0,-1,-1,1757009438671590566
0,4.751708031,20250904141038679,None,12,230.35494995117188,2,1,0,2,3,2,4,-3,1757009438678992748
0,4.751805782,20250904141038679,None,12,230.35494995117188,-2,-4,-3,-3,-5,-9,-14,-1,1757009438679135322
0,4.75918293,20250904141038686,None,12,229.16510009765625,-1,-2,-4,-4,-3,2,4,-1,1757009438686474084
0,4.759293795,20250904141038686,None,12,229.16510009765625,1,1,-1,-2,-2,-2,-3,0,1757009438686579465
0,4.774233341,20250904141038701,None,12,229.87901306152344,-6,-1,2,-3,1,0,-4,-2,1757009438701461076
0,4.7743670940000005,20250904141038701,None,12,229.87901306152344,2,1,-1,-4,-1,-2,-4,-3,1757009438701583862
0,4.781631231,20250904141038709,None,12,229.87901306152344,1,0,4,-1,3,-5,-2,0,1757009438708928346
0,4.781854868,20250904141038709,None,12,229.87901306152344,-2,-1,-1,-1,-1,-1,0,-3,1757009438709030151
0,4.789205551,20250904141038716,None,12,228.92713928222656,-3,-2,-1,-4,-6,5,0,-1,1757009438716478824
0,4.789291859,20250904141038716,None,12,228.92713928222656,-1,-2,3,-3,1,-4,-1,0,1757009438716601133
0,4.8045055869999995,20250904141038732,None,12,228.92713928222656,-1,1,0,0,-2,28,3,3,1757009438731683015
0,4.804663897,20250904141038732,None,12,228.92713928222656,7,2,1,-1,-3,-29,2,-2,1757009438731872320
0,4.811859369,20250904141038739,None,12,230.35494995117188,-1,0,1,-2,0,1,-10,-1,1757009438739091873
0,4.812000036,20250904141038739,None,12,230.35494995117188,3,-2,0,-1,-1,0,0,0,1757009438739263057
0,4.819302321,20250904141038746,None,12,230.35494995117188,-3,-1,-6,1,1,1,0,-1,1757009438746547698
0,4.819453955,20250904141038746,None,12,230.35494995117188,-1,0,0,-3,2,4,0,-1,1757009438746686935
0,4.834269524,20250904141038761,None,12,230.35494995117188,-4,0,-1,2,-2,-5,-3,-3,1757009438761505842
0,4.8344097139999995,20250904141038761,None,12,230.35494995117188,-1,1,-1,3,-1,3,3,-1,1757009438761642456
0,4.841866493,20250904141038769,None,12,229.16510009765625,-3,-1,-2,-2,0,2,-5,-2,1757009438769024610
0,4.842061043,20250904141038769,None,12,229.16510009765625,-1,2,2,-5,-1,-4,-6,5,1757009438769178390
0,4.849271298,20250904141038776,None,12,229.403076171875,2,-2,-4,1,0,0,0,-4,1757009438776497840
0,4.84941864,20250904141038776,None,12,229.403076171875,-5,-1,-2,-3,-4,-2,0,-3,1757009438776646375
0,4.864413023,20250904141038791,None,12,229.64105224609375,0,-2,-2,0,0,-1,0,-2,1757009438791576385
0,4.864552736,20250904141038792,None,12,229.64105224609375,-2,-1,-3,0,6,-1,-1,-2,1757009438791734695
0,4.871812105,20250904141038799,None,12,229.16510009765625,0,1,3,0,-5,1,0,-6,1757009438799018144
0,4.87194705,20250904141038799,None,12,229.16510009765625,-2,-4,3,-2,-3,2,4,2,1757009438799159765
0,4.879294872,20250904141038806,None,12,230.35494995117188,-1,-2,0,1,1,1,-3,-2,1757009438806510686
0,4.879431009,20250904141038806,None,12,230.35494995117188,-1,-4,-3,-1,0,0,3,0,1757009438806664466
0,4.89425683,20250904141038821,None,12,228.45120239257812,-2,-3,-1,-3,0,-3,-1,0,1757009438821506023
0,4.894401312,20250904141038821,None,12,228.45120239257812,-2,-1,-2,2,3,1,0,1,1757009438821653842
0,4.901720762,20250904141038829,None,12,230.59292602539062,-1,-4,-1,-1,-3,-1,-2,-1,1757009438828930854
0,4.901901245,20250904141038829,None,12,230.59292602539062,0,2,1,0,0,-2,-2,-2,1757009438829065561
0,4.909452438,20250904141038836,None,12,228.45120239257812,0,-5,0,0,4,0,2,1,1757009438836575508
0,4.909667492,20250904141038837,None,12,228.45120239257812,0,-4,-3,1,0,1,1,-2,1757009438836755275
0,4.92434907,20250904141038851,None,12,228.92713928222656,0,1,-3,0,-3,7,-3,-2,1757009438851518869
0,4.924497366,20250904141038851,None,12,228.92713928222656,1,1,0,-2,0,-21,1,5,1757009438851674556
0,4.931833983,20250904141038859,None,12,229.87901306152344,-1,-3,-1,-3,-3,6,3,-4,1757009438859043121
0,4.931979656,20250904141038859,None,12,229.87901306152344,0,-4,-2,0,-1,3,2,1,1757009438859185457
0,4.939254999,20250904141038866,None,12,229.87901306152344,-6,2,-1,-1,-1,-3,-9,-3,1757009438866513490
0,4.939420223,20250904141038866,None,12,229.87901306152344,6,-2,0,-2,-1,0,3,2,1757009438866652250
0,4.954338551,20250904141038881,None,12,229.403076171875,-7,-1,0,0,2,0,-2,-1,1757009438881521224
0,4.954503536,20250904141038882,None,12,229.403076171875,14,7,1,-4,-1,3,-1,1,1757009438881691694
0,4.961711168,20250904141038889,None,12,230.1169891357422,-1,0,-2,-1,-4,0,3,4,1757009438888981819
0,4.961851359,20250904141038889,None,12,230.1169891357422,-3,0,-1,-1,3,2,-1,-4,1757009438889119386
0,4.969198465,20250904141038896,None,12,228.45120239257812,-3,-4,1,-3,2,-6,1,-11,1757009438896481513
0,4.969340563,20250904141038896,None,12,228.45120239257812,2,-2,-1,1,-5,-2,2,3,1757009438896612644
0,4.984322786,20250904141038911,None,12,230.59292602539062,-4,2,0,1,-1,-4,-7,1,1757009438911542415
0,4.984468222,20250904141038911,None,12,230.59292602539062,-1,-7,-4,-4,-5,-9,-6,-1,1757009438911694288
0,4.991803169,20250904141038919,None,12,228.45120239257812,-2,0,-2,-1,-1,1,-2,1,1757009438918994188
0,4.991932631,20250904141038919,None,12,228.45120239257812,0,0,-1,-2,-1,-5,0,-1,1757009438919137716
0,5.006834984,20250904141038934,None,12,228.92713928222656,3,-1,-4,1,4,4,-1,3,1757009438934058427
0,5.006980658,20250904141038934,None,12,228.92713928222656,-2,3,-2,-1,-3,0,1,0,1757009438934202432
0,5.014417648,20250904141038941,None,12,228.92713928222656,0,-1,1,2,0,-1,2,2,1757009438941643238
0,5.014526367,20250904141038942,None,12,228.92713928222656,0,0,1,3,0,0,-6,2,1757009438941820144
0,5.021710634,20250904141038949,None,12,230.1169891357422,2,-1,0,-1,-1,-1,-5,-2,1757009438948972463
0,5.021811962,20250904141038949,None,12,230.1169891357422,-3,2,1,-4,-3,-4,-1,0,1757009438949107408
0,5.036769629,20250904141038964,None,12,229.64105224609375,-12,-3,-3,-2,-2,1,5,0,1757009438963986635
0,5.036885977,20250904141038964,None,12,229.64105224609375,-1,-2,-2,-2,-6,-5,-12,-2,1757009438964125156
0,5.044250488,20250904141038971,None,12,230.35494995117188,-1,1,-2,0,1,0,0,-1,1757009438971507310
0,5.044340849,20250904141038971,None,12,230.35494995117188,-2,-1,0,1,-4,0,-1,-2,1757009438971655607
0,5.051719666,20250904141038979,None,12,230.35494995117188,-1,-3,0,-2,-1,3,2,-2,1757009438978992462
0,5.051847458,20250904141038979,None,12,230.35494995117188,-4,-3,-1,-1,-1,3,-4,-2,1757009438979122877
0,5.066752672,20250904141038994,None,12,230.1169891357422,2,1,-4,-2,-3,-1,0,2,1757009438993983745
0,5.066861868,20250904141038994,None,12,230.1169891357422,-1,-4,-2,-3,0,15,-1,-2,1757009438994123458
0,5.07437563,20250904141039001,None,12,228.45120239257812,4,1,0,-2,-1,-31,1,0,1757009439001585483
0,5.074542523,20250904141039002,None,12,228.45120239257812,0,3,2,1,-1,4,-3,2,1757009439001757860
0,5.081736326,20250904141039009,None,12,230.35494995117188,1,-4,-3,-2,-2,-1,2,2,1757009439008992433
0,5.081874132,20250904141039009,None,12,230.35494995117188,-7,-1,1,1,6,6,3,-5,1757009439009126663
0,5.096799851,20250904141039024,None,12,228.6891632080078,6,0,0,2,-1,-3,0,-7,1757009439024013519
0,5.096934319,20250904141039024,None,12,228.6891632080078,-4,0,-2,-3,-8,0,-1,3,1757009439024163484
0,5.10434413,20250904141039031,None,12,230.1169891357422,0,-2,2,2,-1,-5,-6,0,1757009439031533479
0,5.104604006,20250904141039032,None,12,230.1169891357422,1,-1,0,-2,1,4,4,1,1757009439031693935
0,5.111750841,20250904141039039,None,12,229.403076171875,0,-2,-1,-2,0,1,-1,0,1757009439038994550
0,5.111903429,20250904141039039,None,12,229.403076171875,-4,-2,2,-1,0,0,4,1,1757009439039144754
0,5.127288818,20250904141039054,None,12,230.1169891357422,-3,1,0,-2,-5,-3,-8,-2,1757009439054496049
0,5.127429009,20250904141039054,None,12,230.1169891357422,-1,-3,-2,-7,-5,-4,-1,-2,1757009439054640531
0,5.134188891,20250904141039061,None,12,230.1169891357422,1,-1,1,1,-2,-6,0,0,1757009439061471223
0,5.134315252,20250904141039061,None,12,230.1169891357422,1,-1,-4,0,-2,2,-3,-3,1757009439061607599
0,5.141804218,20250904141039069,None,12,228.92713928222656,0,1,2,1,-2,5,-1,-4,1757009439069016218
0,5.141981602,20250904141039069,None,12,228.92713928222656,1,2,0,-4,0,-2,2,0,1757009439069164752
0,5.156839848,20250904141039084,None,12,228.45120239257812,1,1,2,0,-3,-1,3,2,1757009439084038496
0,5.15696311,20250904141039084,None,12,228.45120239257812,2,5,-1,-1,0,-7,-9,-2,1757009439084221839
0,5.164257765,20250904141039091,None,12,230.35494995117188,-4,-2,-1,-2,-5,1,2,-3,1757009439091521263
0,5.16434145,20250904141039091,None,12,230.35494995117188,-1,1,1,0,2,5,8,-2,1757009439091670036
0,5.171674967,20250904141039099,None,12,228.6891632080078,-1,-5,0,-2,-3,-4,-6,-5,1757009439098932743
0,5.171817064,20250904141039099,None,12,228.6891632080078,5,1,0,-1,-1,-2,2,4,1757009439099047183
0,5.186807871,20250904141039114,None,12,229.87901306152344,-2,3,1,2,-3,-4,-4,1,1757009439113988399
0,5.186963081,20250904141039114,None,12,229.87901306152344,-4,-2,-5,0,2,4,2,2,1757009439114145040
0,5.194247484,20250904141039121,None,12,229.403076171875,12,4,-3,-2,-3,-1,-3,-2,1757009439121474981
0,5.194403649,20250904141039121,None,12,229.403076171875,-6,-6,0,-3,2,19,1,-2,1757009439121667385
0,5.201657772,20250904141039129,None,12,229.87901306152344,2,-2,0,1,-6,-28,-1,-1,1757009439128907203
0,5.201794148,20250904141039129,None,12,229.87901306152344,-1,-3,-3,0,-3,5,-4,1,1757009439129039049
0,5.216843367,20250904141039144,None,12,229.87901306152344,-4,0,-2,-2,-1,7,6,-3,1757009439144025087
0,5.217053652,20250904141039144,None,12,229.87901306152344,-4,-2,0,0,0,0,-7,0,1757009439144163370
0,5.224357367,20250904141039151,None,12,228.92713928222656,-3,-2,-3,-1,-1,-1,0,-2,1757009439151598453
0,5.224487543,20250904141039151,None,12,228.92713928222656,5,2,2,1,-1,1,-2,-1,1757009439151720523
0,5.231778383,20250904141039159,None,12,230.35494995117188,0,1,-1,0,1,-3,-3,4,1757009439159019231
0,5.231895447,20250904141039159,None,12,230.35494995117188,0,-2,1,0,-1,0,3,2,1757009439159133434
0,5.246866226,20250904141039174,None,12,230.35494995117188,4,-1,-4,-2,-6,-2,-2,-3,1757009439174080610
0,5.24700284,20250904141039174,None,12,230.35494995117188,-3,1,-3,2,2,-1,-2,1,1757009439174213171
0,5.254189253,20250904141039181,None,12,230.35494995117188,1,1,-1,0,-3,-3,0,-4,1757009439181469440
0,5.254276037,20250904141039181,None,12,230.35494995117188,0,0,1,1,2,6,1,3,1757009439181601285
0,5.261808872,20250904141039189,None,12,228.6891632080078,-3,-3,-3,-4,-1,2,11,-2,1757009439188923358
0,5.262065649,20250904141039189,None,12,228.6891632080078,-1,-2,-1,0,0,-2,-9,-4,1757009439189052343
0,5.27724433,20250904141039204,None,12,229.16510009765625,1,1,0,0,-4,2,0,-2,1757009439204396486
0,5.277366877,20250904141039204,None,12,229.16510009765625,-2,-1,-2,1,-3,-2,2,-3,1757009439204602718
0,5.284671307,20250904141039212,None,12,229.64105224609375,-2,-2,-1,0,1,-9,-11,2,1757009439211855888
0,5.284803391,20250904141039212,None,12,229.64105224609375,-4,-1,1,-1,1,0,2,-3,1757009439212085962
0,5.292104483,20250904141039219,None,12,229.87901306152344,-1,-1,-2,-5,0,6,0,-1,1757009439219261169
0,5.292206526,20250904141039219,None,12,229.87901306152344,2,-2,0,3,0,0,-1,1,1757009439219511508
0,5.306718588,20250904141039234,None,12,228.6891632080078,2,0,1,0,-1,-4,-5,-2,1757009439233942985
0,5.306874275,20250904141039234,None,12,228.6891632080078,-4,-1,0,0,-3,-3,-3,-4,1757009439234069585
0,5.314241648,20250904141039241,None,12,230.1169891357422,-6,-1,-4,-3,-3,-4,-5,0,1757009439241474866
0,5.314351797,20250904141039241,None,12,230.1169891357422,8,-1,-2,-3,-3,3,8,0,1757009439241601943
0,5.329269886,20250904141039256,None,12,230.59292602539062,0,0,-1,-1,0,-4,-5,-7,1757009439256498336
0,5.329419851,20250904141039256,None,12,230.59292602539062,-1,1,1,0,-2,-1,-9,5,1757009439256632804
0,5.3366642,20250904141039264,None,12,230.59292602539062,-5,-2,-3,-4,-3,1,5,-4,1757009439263963222
0,5.336788178,20250904141039264,None,12,230.59292602539062,-1,0,0,1,1,3,1,-3,1757009439264072179
0,5.344386816,20250904141039271,None,12,228.92713928222656,1,-1,0,0,-1,-17,-2,0,1757009439271593332
0,5.3445096020000005,20250904141039271,None,12,228.92713928222656,-1,1,-1,0,-5,1,-2,0,1757009439271726608
0,5.351932287,20250904141039279,None,12,230.59292602539062,-1,-1,2,1,1,-2,0,0,1757009439279110908
0,5.35207367,20250904141039279,None,12,230.59292602539062,0,0,1,0,-5,-1,0,0,1757009439279261112
0,5.366960764,20250904141039294,None,12,229.87901306152344,5,-1,-1,1,-1,4,4,0,1757009439294113397
0,5.367126465,20250904141039294,None,12,229.87901306152344,1,0,-2,0,2,-1,1,2,1757009439294281721
0,5.374454498,20250904141039301,None,12,229.87901306152344,-3,-2,-1,-3,-3,-5,-1,-2,1757009439301645755
0,5.374596834,20250904141039302,None,12,229.87901306152344,-2,3,2,-1,0,1,-1,-3,1757009439301806688
0,5.381727934,20250904141039309,None,12,229.64105224609375,-5,-2,-1,-3,-3,-1,-1,-2,1757009439308965206
0,5.381842375,20250904141039309,None,12,229.64105224609375,0,0,-1,-3,0,-4,-5,1,1757009439309072017
0,5.397011519,20250904141039324,None,12,230.1169891357422,-2,1,-4,0,-3,-1,-1,0,1757009439324140787
0,5.397227049,20250904141039324,None,12,230.1169891357422,-1,1,0,-1,-2,0,-7,1,1757009439324292659
0,5.404235602,20250904141039331,None,12,228.6891632080078,0,0,-1,3,2,1,1,-4,1757009439331475734
0,5.404352903,20250904141039331,None,12,228.6891632080078,2,0,-2,-3,-7,-3,-2,-3,1757009439331591844
0,5.411747694,20250904141039339,None,12,228.6891632080078,-13,-4,-1,-4,-5,-8,-5,-2,1757009439338988065
0,5.411885977,20250904141039339,None,12,228.6891632080078,6,1,-1,-1,-1,-6,-5,-1,1757009439339117765
0,5.4268713,20250904141039354,None,12,228.45120239257812,0,-2,-3,-4,-1,10,-1,0,1757009439353991270
0,5.427030325,20250904141039354,None,12,228.45120239257812,1,-1,-4,-4,-2,-10,-1,0,1757009439354137182
0,5.434328556,20250904141039361,None,12,230.1169891357422,-1,-3,0,2,2,7,4,0,1757009439361516714
0,5.434469938,20250904141039361,None,12,230.1169891357422,0,-1,-1,0,-4,0,0,-2,1757009439361671924
0,5.441790104,20250904141039369,None,12,229.16510009765625,-1,-1,-2,-1,0,-4,-4,-1,1757009439369003534
0,5.4418993,20250904141039369,None,12,229.16510009765625,1,-3,-2,-1,0,0,-2,-1,1757009439369141101
0,5.456885815,20250904141039384,None,12,229.64105224609375,-3,-5,0,1,5,17,-2,2,1757009439384070158
0,5.45703578,20250904141039384,None,12,229.64105224609375,-2,2,3,-1,-4,-29,-2,-4,1757009439384257793
0,5.464305878,20250904141039391,None,12,229.64105224609375,-2,-1,1,2,-4,10,2,-3,1757009439391499757
0,5.464549542,20250904141039392,None,12,229.64105224609375,-2,0,-2,0,1,2,2,0,1757009439391676902
0,5.471705675,20250904141039399,None,12,229.16510009765625,0,-3,-1,2,2,0,-4,-2,1757009439398973226
0,5.471838713,20250904141039399,None,12,229.16510009765625,0,0,2,0,0,-5,-8,-2,1757009439399088144
0,5.486698389,20250904141039414,None,12,228.45120239257812,-4,-1,0,-1,1,2,1,-3,1757009439413949012
0,5.486865997,20250904141039414,None,12,228.45120239257812,-4,1,0,-1,1,-2,-2,0,1757009439414061307
0,5.494726896,20250904141039422,None,12,228.45120239257812,4,-2,-4,-1,-2,-2,3,5,1757009439421456336
0,5.495065451,20250904141039422,None,12,230.1169891357422,0,2,-2,0,-1,-3,-5,2,1757009439421586275
0,5.5016319750000005,20250904141039429,None,12,230.1169891357422,-3,-3,-1,-3,-2,7,-2,-1,1757009439428873062
0,5.501735211,20250904141039429,None,12,230.1169891357422,-6,-5,-2,-1,-4,1,2,-1,1757009439428993463
0,5.5167617799999995,20250904141039444,None,12,230.35494995117188,0,-1,-1,-4,1,-1,-6,-1,1757009439443940639
0,5.51688385,20250904141039444,None,12,230.35494995117188,1,2,-1,0,1,-4,-4,2,1757009439444100141
0,5.5243387219999995,20250904141039451,None,12,228.92713928222656,-3,0,-2,-1,1,0,1,-3,1757009439451527833
0,5.524478197,20250904141039451,None,12,228.92713928222656,-1,-1,-2,1,-3,-2,-2,-5,1757009439451694965
0,5.531840086,20250904141039459,None,12,230.1169891357422,-2,-3,-3,1,1,0,-2,0,1757009439459026336
0,5.532046795,20250904141039459,None,12,230.1169891357422,-3,1,2,-1,1,-2,-4,0,1757009439459193229
0,5.546874523,20250904141039474,None,12,229.403076171875,12,-1,-2,0,0,1,0,-2,1757009439473994731
0,5.547031164,20250904141039474,None,12,229.403076171875,-5,1,0,1,-2,0,5,1,1757009439474134922
0,5.55426836,20250904141039481,None,12,229.16510009765625,-4,-4,-1,-1,-1,-4,-6,-4,1757009439481517314
0,5.554414749,20250904141039481,None,12,229.16510009765625,-3,1,-1,2,1,3,-2,-2,1757009439481652736
0,5.561731815,20250904141039489,None,12,230.1169891357422,-1,0,0,0,-4,-6,-4,-1,1757009439488934993
0,5.562133551,20250904141039489,None,12,230.1169891357422,2,-2,-2,-1,-7,-4,4,2,1757009439489065408
0,5.576786995,20250904141039504,None,12,228.6891632080078,-1,1,1,0,3,5,6,2,1757009439504001379
0,5.576914072,20250904141039504,None,12,228.6891632080078,-1,-1,1,-1,0,-3,-1,-2,1757009439504137754
0,5.584171057,20250904141039511,None,12,230.59292602539062,-2,0,0,-3,-5,-7,-4,0,1757009439511454582
0,5.584287882,20250904141039511,None,12,230.59292602539062,-1,-2,0,-3,-2,0,-7,-6,1757009439511558771
0,5.591814518,20250904141039519,None,12,228.45120239257812,6,0,2,1,1,0,4,3,1757009439518989801
0,5.591943979,20250904141039519,None,12,228.45120239257812,-1,-1,-2,0,-1,-1,0,-9,1757009439519156217
0,5.606868029,20250904141039534,None,12,228.6891632080078,-1,0,3,-3,0,0,10,0,1757009439533978223
0,5.607042313,20250904141039534,None,12,228.6891632080078,0,2,2,-2,-3,-6,-4,2,1757009439534117460
0,5.614236117,20250904141039541,None,12,228.6891632080078,0,-3,-1,3,1,-3,-12,-1,1757009439541435480
0,5.614366532,20250904141039541,None,12,228.6891632080078,2,-5,-4,-3,-8,-3,-1,-2,1757009439541558504
0,5.621660471,20250904141039549,None,12,229.87901306152344,0,0,-1,-2,-2,4,10,-1,1757009439548941612
0,5.621747494,20250904141039549,None,12,229.87901306152344,-3,-2,-1,-2,-3,-7,-12,-5,1757009439549062490
0,5.6369233130000005,20250904141039564,None,12,229.403076171875,2,1,-1,0,2,-2,1,-1,1757009439564028739
0,5.637072086,20250904141039564,None,12,229.403076171875,5,4,-4,0,3,-3,-6,-3,1757009439564222574
0,5.644296646,20250904141039571,None,12,229.87901306152344,-2,-1,-2,1,2,1,5,1,1757009439571542024
0,5.644423723,20250904141039571,None,12,229.87901306152344,-11,-1,1,1,1,-7,-5,-1,1757009439571666479
0,5.651881695,20250904141039579,None,12,228.6891632080078,13,3,1,0,-2,-7,-1,-1,1757009439579010963
0,5.652059555,20250904141039579,None,12,228.6891632080078,0,-1,1,1,-2,5,-1,-2,1757009439579144954
0,5.666810513,20250904141039594,None,12,230.59292602539062,-2,-2,0,2,0,3,6,0,1757009439593955755
0,5.666964054,20250904141039594,None,12,230.59292602539062,0,0,1,-1,-2,-1,1,-1,1757009439594088077
0,5.67423892,20250904141039601,None,12,228.21322631835938,-1,-2,0,0,0,-1,-2,1,1757009439601487874
0,5.674352646,20250904141039601,None,12,228.21322631835938,5,-3,1,0,2,-2,2,1,1757009439601612091
0,5.681725264,20250904141039609,None,12,230.1169891357422,-2,-2,1,0,1,-3,0,-5,1757009439608944892
0,5.681901217,20250904141039609,None,12,230.1169891357422,-3,1,-3,1,1,3,5,8,1757009439609076023
0,5.6968538760000005,20250904141039624,None,12,228.45120239257812,-3,1,2,2,-1,-7,-11,-1,1757009439624024629
0,5.697018147,20250904141039624,None,12,228.45120239257812,3,0,-2,-1,2,-5,-5,0,1757009439624161958
0,5.70433259,20250904141039631,None,12,230.1169891357422,0,4,1,4,6,24,0,0,1757009439631507158
0,5.704470873,20250904141039631,None,12,230.1169891357422,-4,-1,0,-3,-4,-26,5,-2,1757009439631659746
0,5.711869955,20250904141039639,None,12,228.92713928222656,2,0,1,0,-4,5,4,1,1757009439639025926
0,5.712022305,20250904141039639,None,12,228.92713928222656,-1,-1,0,0,-2,1,0,2,1757009439639169931
0,5.726815462,20250904141039654,None,12,229.87901306152344,-6,-2,-1,-3,2,5,3,-3,1757009439653995752
0,5.7269515989999995,20250904141039654,None,12,229.87901306152344,1,-1,-1,1,0,-4,-4,0,1757009439654134273
0,5.734269381,20250904141039661,None,12,228.92713928222656,-1,-5,-1,-1,-2,-4,-7,-1,1757009439661474227
0,5.734406948,20250904141039661,None,12,228.92713928222656,-3,-1,-1,-4,3,-1,-2,0,1757009439661607503
0,5.741699934,20250904141039669,None,12,228.92713928222656,3,-1,-2,-1,-4,1,2,-2,1757009439668950319
0,5.74187851,20250904141039669,None,12,228.92713928222656,0,-2,1,-1,-3,2,3,0,1757009439669072628
0,5.756704331,20250904141039684,None,12,228.6891632080078,-9,-4,-1,0,3,-6,-8,0,1757009439683916807
0,5.75689435,20250904141039684,None,12,228.6891632080078,5,3,0,3,2,2,3,1,1757009439684052228
0,5.764332295,20250904141039691,None,12,230.35494995117188,2,-1,-3,2,-4,-4,-1,0,1757009439691508531
0,5.764492273,20250904141039691,None,12,230.35494995117188,-3,-1,1,-1,-4,1,-1,-3,1757009439691650867
0,5.77188015,20250904141039699,None,12,228.6891632080078,5,2,0,0,1,-2,0,1,1757009439699034214
0,5.772025824,20250904141039699,None,12,228.6891632080078,-6,-3,1,-3,-2,-5,-3,-2,1757009439699208021
0,5.786505222,20250904141039713,None,12,230.35494995117188,-2,-2,-1,-1,1,1,0,2,1757009439713857173
0,5.78657651,20250904141039714,None,12,230.35494995117188,-1,0,-3,0,3,7,4,-2,1757009439713950872
0,5.794262648,20250904141039721,None,12,229.16510009765625,-2,0,-2,0,-4,-6,-9,-3,1757009439721458911
0,5.794469595,20250904141039721,None,12,229.16510009765625,-1,0,-3,-2,-1,-3,-1,0,1757009439721580028
0,5.801702976,20250904141039729,None,12,229.64105224609375,0,0,2,1,-2,-1,0,-3,1757009439728928804
0,5.801847458,20250904141039729,None,12,229.64105224609375,-2,1,-1,-1,2,1,3,-1,1757009439729057073
0,5.81691885,20250904141039744,None,12,229.64105224609375,6,0,-2,-2,0,0,1,-5,1757009439744055986
0,5.817101956,20250904141039744,None,12,229.64105224609375,-3,-2,-1,-1,0,-3,-2,4,1757009439744213581
0,5.824368715,20250904141039751,None,12,229.16510009765625,-3,0,-1,0,0,20,0,-1,1757009439751553297
0,5.824528456,20250904141039752,None,12,229.16510009765625,1,-1,-2,-1,-1,-21,4,1,1757009439751689195
0,5.831823826,20250904141039759,None,12,230.35494995117188,6,-2,-1,-1,-5,1,-9,-4,1757009439759021043
0,5.831960678,20250904141039759,None,12,230.35494995117188,-1,-2,-3,-1,2,4,0,-5,1757009439759155988
0,5.84680295,20250904141039774,None,12,230.35494995117188,-1,-1,-2,4,0,-3,-2,3,1757009439773969888
0,5.846940994,20250904141039774,None,12,230.35494995117188,0,-4,0,0,-1,-1,-4,-4,1757009439774145364
0,5.8542106149999995,20250904141039781,None,12,230.35494995117188,4,1,-4,-1,-3,7,-1,-1,1757009439781462430
0,5.854356289,20250904141039781,None,12,230.35494995117188,-3,-1,-3,0,0,4,2,1,1757009439781576633
0,5.861725807,20250904141039789,None,12,228.45120239257812,1,0,1,-2,1,-9,-4,3,1757009439788957118
0,5.861852408,20250904141039789,None,12,228.45120239257812,-4,-1,-2,-2,2,7,2,-6,1757009439789127349
0,5.876815796,20250904141039804,None,12,229.16510009765625,-3,3,1,-2,1,5,6,2,1757009439803982257
0,5.876998186,20250904141039804,None,12,229.16510009765625,-4,-3,-1,-1,-1,-5,-11,-4,1757009439804155588
0,5.884296179,20250904141039811,None,12,229.64105224609375,3,-1,2,0,-4,-2,-3,-1,1757009439811572074
0,5.884420157,20250904141039811,None,12,229.64105224609375,-7,-5,-2,0,-4,-6,-4,0,1757009439811702966
0,5.891796351,20250904141039819,None,12,229.64105224609375,15,5,1,1,3,0,-3,0,1757009439818994522
0,5.891903877,20250904141039819,None,12,229.64105224609375,0,-1,0,-2,-3,5,2,3,1757009439819110393
0,5.906733513,20250904141039834,None,12,228.92713928222656,0,0,-2,1,-1,-1,-3,0,1757009439833960533
0,5.906883717,20250904141039834,None,12,228.92713928222656,1,-1,3,-2,-2,-2,-3,-1,1757009439834094762
0,5.914261103,20250904141039841,None,12,230.1169891357422,-2,-3,-1,-3,1,-2,0,-1,1757009439841500759
0,5.9143848420000005,20250904141039841,None,12,230.1169891357422,-5,-1,-3,-1,4,-5,-2,-1,1757009439841658115
0,5.921655893,20250904141039849,None,12,228.92713928222656,2,2,0,-1,5,3,1,3,1757009439848924636
0,5.921751976,20250904141039849,None,12,228.92713928222656,-5,-2,-3,-5,-7,-6,-4,-6,1757009439849045991
0,5.93672061,20250904141039864,None,12,230.59292602539062,2,2,-1,1,-4,-3,-6,-4,1757009439863960266
0,5.936857224,20250904141039864,None,12,230.59292602539062,0,0,2,-1,0,5,4,1,1757009439864128589
0,5.94421792,20250904141039871,None,12,228.45120239257812,-3,1,-1,-2,0,-2,-1,0,1757009439871481657
0,5.944322825,20250904141039871,None,12,228.45120239257812,-1,-1,1,2,2,-4,2,4,1757009439871600866
0,5.959220171,20250904141039886,None,12,228.92713928222656,1,-3,0,-3,1,1,-1,-4,1757009439886466979
0,5.959357023,20250904141039886,None,12,228.92713928222656,-1,0,-3,0,3,6,5,-5,1757009439886595487
0,5.966675997,20250904141039894,None,12,229.87901306152344,-4,-7,0,-1,1,15,-2,-5,1757009439893968820
0,5.966794491,20250904141039894,None,12,229.87901306152344,-4,0,-1,1,-4,-34,-2,-8,1757009439894092082
0,5.974207878,20250904141039901,None,12,229.403076171875,-4,-3,-2,0,-2,7,-4,1,1757009439901434421
0,5.97433877,20250904141039901,None,12,229.403076171875,0,1,0,-2,-2,3,-2,2,1757009439901564359
0,5.989174843,20250904141039916,None,12,228.92713928222656,-1,-2,0,-3,-1,1,-3,0,1757009439916426181
0,5.989289522,20250904141039916,None,12,228.92713928222656,-2,0,-1,2,-2,-1,0,-5,1757009439916559696
0,5.996628046,20250904141039924,None,12,230.1169891357422,-1,4,1,2,-4,1,1,1,1757009439923913478
0,5.996730805,20250904141039924,None,12,230.1169891357422,0,0,-3,-3,-1,-3,2,1,1757009439924032449
0,6.004215717,20250904141039931,None,12,228.6891632080078,-4,0,1,-1,3,6,3,-3,1757009439931472301
0,6.004307509,20250904141039931,None,12,228.6891632080078,7,2,-2,-4,2,1,2,-4,1757009439931602239
0,6.019356728,20250904141039946,None,12,230.59292602539062,-12,-6,-2,-3,-7,-9,-1,-3,1757009439946525335
0,6.019587755,20250904141039947,None,12,228.92713928222656,2,1,2,3,-3,-3,-4,0,1757009439946689844
0,6.026725292,20250904141039954,None,12,228.92713928222656,-3,0,-1,0,2,4,3,-2,1757009439953964710
0,6.026968002,20250904141039954,None,12,228.92713928222656,-1,1,-3,1,-2,-4,-2,-2,1757009439954092025
0,6.034235478,20250904141039961,None,12,230.59292602539062,-3,-2,-3,0,-1,2,2,2,1757009439961467742
0,6.034362555,20250904141039961,None,12,230.59292602539062,-2,1,-3,1,1,-1,-4,-4,1757009439961627721
0,6.057508946,20250904141039985,None,12,229.403076171875,1,-3,1,-2,-1,-1,1,-4,1757009439984695434
0,6.057635546,20250904141039985,None,12,229.403076171875,0,-1,3,0,-3,-5,-4,-1,1757009439984881877
0,6.058062792,20250904141039985,None,12,229.403076171875,3,3,-4,2,3,-1,0,0,1757009439985402345
0,6.058170796,20250904141039985,None,12,229.403076171875,-4,0,-1,-1,2,1,-3,0,1757009439985508203
0,6.064179897,20250904141039991,None,12,229.403076171875,-2,-4,-2,-4,-5,4,5,-3,1757009439991458892
0,6.064281225,20250904141039991,None,12,229.403076171875,-1,-3,-2,-4,-3,1,-8,0,1757009439991584062
0,6.079277039,20250904141040006,None,12,230.35494995117188,-1,1,-2,-2,2,-1,-5,-5,1757009440006462574
