gt,time_elapsed,current_time,current_task,motor_position,futek,emg0,emg1,emg2,emg3,emg4,emg5,emg6,emg7,emg_timer_stamp
0,0.03757143,20250904141334897,None,12,230.83090209960938,-1,-5,-2,0,2,-1,-7,-3,1757009614897557497
0,0.037725926,20250904141334897,None,12,230.83090209960938,-1,-1,-1,-1,0,1,0,-3,1757009614897672176
0,0.044846773,20250904141334905,None,12,232.2587127685547,-1,0,1,1,-4,-1,-3,-1,1757009614904901027
0,0.044937372,20250904141334905,None,12,232.2587127685547,1,2,-1,-1,-3,-3,2,-1,1757009614904992103
0,0.052523852,20250904141334912,None,12,232.020751953125,2,-4,0,3,-2,0,-2,-3,1757009614912590503
0,0.052621842,20250904141334912,None,12,232.020751953125,0,0,0,2,-1,-1,-2,-1,1757009614912744998
0,0.06743145,20250904141334927,None,12,231.78277587890625,3,-1,-1,-4,-4,-3,-3,0,1757009614927455902
0,0.067530155,20250904141334927,None,12,231.78277587890625,-2,0,0,-3,-1,2,-2,-4,1757009614927583456
0,0.075101614,20250904141334935,None,12,232.97262573242188,-2,-2,-1,-2,-2,0,-1,-1,1757009614935051441
0,0.075207234,20250904141334935,None,12,232.97262573242188,-1,-4,-1,-1,0,-3,2,-1,1757009614935176849
0,0.082516194,20250904141334942,None,12,230.59292602539062,1,-1,-2,0,-2,0,-1,-4,1757009614942561388
0,0.082578898,20250904141334942,None,12,230.59292602539062,0,-1,-4,1,0,-2,1,-2,1757009614942703962
0,0.09763217,20250904141334957,None,12,229.64105224609375,-4,-4,0,0,-4,-5,-5,-5,1757009614957628250
0,0.097729445,20250904141334957,None,12,229.64105224609375,3,6,2,-1,0,1,0,1,1757009614957799911
0,0.105054379,20250904141334965,None,12,232.49668884277344,2,4,0,-2,1,-3,-3,-1,1757009614965062618
0,0.105198622,20250904141334965,None,12,232.49668884277344,-4,-4,-1,0,1,0,2,-1,1757009614965212106
0,0.112673998,20250904141334972,None,12,232.49668884277344,-2,-4,-2,-2,-2,-2,1,1,1757009614972639322
0,0.112811089,20250904141334973,None,12,232.49668884277344,0,-3,-1,-1,-2,3,-3,-1,1757009614972828865
0,0.127858162,20250904141334988,None,12,231.5447998046875,-1,0,2,-2,0,4,-2,0,1757009614987785577
0,0.12801528,20250904141334988,None,12,231.5447998046875,-3,0,-2,-4,1,-4,-2,-1,1757009614988000154
0,0.135091782,20250904141334995,None,12,231.06886291503906,-2,-3,1,2,0,-1,-1,-1,1757009614995097160
0,0.135238648,20250904141334995,None,12,231.06886291503906,-2,3,-3,0,-3,-1,0,-3,1757009614995205163
0,0.142668724,20250904141335002,None,12,231.3068389892578,2,1,1,0,0,0,-1,-2,1757009615002580404
0,0.142843247,20250904141335003,None,12,231.3068389892578,0,-2,-2,0,0,-2,-1,-4,1757009615002733707
0,0.157588482,20250904141335017,None,12,232.49668884277344,-1,-2,-3,0,-2,1,1,-2,1757009615017560243
0,0.157750845,20250904141335018,None,12,232.49668884277344,-1,1,1,1,-1,2,-1,-1,1757009615017711162
0,0.165100336,20250904141335025,None,12,230.1169891357422,3,0,-2,1,1,-1,-1,-2,1757009615025019407
0,0.165249348,20250904141335025,None,12,230.1169891357422,3,2,-2,-1,-2,0,3,-1,1757009615025184154
0,0.172854424,20250904141335033,None,12,232.73464965820312,0,-4,-1,1,-3,-1,-7,-2,1757009615032815456
0,0.173027039,20250904141335033,None,12,232.73464965820312,1,-2,-1,-1,-3,-2,1,-2,1757009615032986640
0,0.187773943,20250904141335048,None,12,230.35494995117188,-2,-2,-1,-1,0,3,-1,-2,1757009615047498226
0,0.18797493,20250904141335048,None,12,230.35494995117188,-1,-1,1,-2,1,-1,-2,-2,1757009615047627210
0,0.195911408,20250904141335056,None,12,232.2587127685547,-3,-3,-3,0,-2,0,1,-3,1757009615055472373
0,0.19617939,20250904141335056,None,12,232.2587127685547,-1,0,-2,1,3,-2,0,0,1757009615055667638
0,0.202705383,20250904141335062,None,12,230.83090209960938,-5,1,0,2,0,-2,-2,0,1757009615062653541
0,0.202909231,20250904141335063,None,12,230.83090209960938,1,0,1,-1,-2,0,0,-2,1757009615062814235
0,0.21778965,20250904141335078,None,12,231.3068389892578,0,3,0,0,-1,-3,-1,-1,1757009615077689170
0,0.217916489,20250904141335078,None,12,231.3068389892578,-1,-1,2,1,0,-2,0,-1,1757009615077826738
0,0.225450278,20250904141335085,None,12,231.3068389892578,1,2,-1,-4,2,2,2,2,1757009615085205793
0,0.225736857,20250904141335086,None,12,231.06886291503906,1,-4,-3,1,1,-2,-4,-1,1757009615085444450
0,0.233173847,20250904141335093,None,12,231.06886291503906,-1,0,-3,-2,0,-1,0,-3,1757009615092855691
0,0.233385086,20250904141335093,None,12,231.06886291503906,-1,-3,1,-2,-2,-2,-2,0,1757009615093051433
0,0.248232126,20250904141335108,None,12,230.83090209960938,-1,0,-1,0,-1,-1,0,-2,1757009615107843875
0,0.248528958,20250904141335108,None,12,230.83090209960938,1,1,-1,-2,1,0,0,-2,1757009615108078479
0,0.255386353,20250904141335115,None,12,232.2587127685547,-2,0,-2,1,-1,2,2,-1,1757009615115291833
0,0.255508185,20250904141335115,None,12,232.2587127685547,-3,-4,-6,-5,-1,-1,-2,-4,1757009615115432739
0,0.263060093,20250904141335123,None,12,230.1169891357422,2,0,-4,-2,-1,0,0,0,1757009615122788429
0,0.26325202,20250904141335123,None,12,230.1169891357422,0,3,3,0,-4,-4,-1,0,1757009615123019218
0,0.278091192,20250904141335138,None,12,232.020751953125,-2,-3,1,-1,-3,0,-5,-6,1757009615137623548
0,0.278334141,20250904141335138,None,12,232.020751953125,-2,-3,-2,-4,1,-2,-1,-1,1757009615137800455
0,0.285469294,20250904141335145,None,12,229.64105224609375,-1,-4,-1,0,0,-1,-1,1,1757009615144968509
0,0.285670519,20250904141335145,None,12,229.64105224609375,-4,0,-1,-4,-5,0,1,-1,1757009615145087242
0,0.293019772,20250904141335153,None,12,232.020751953125,0,-3,-1,-1,3,2,-2,-1,1757009615152631521
0,0.293285132,20250904141335153,None,12,232.020751953125,0,2,-1,-1,-2,-5,1,0,1757009615152808904
0,0.307813168,20250904141335168,None,12,232.2587127685547,0,1,0,3,-3,-2,-4,2,1757009615167566061
0,0.308232308,20250904141335168,None,12,232.2587127685547,1,-1,-4,2,-1,-2,-4,0,1757009615167738199
0,0.315060854,20250904141335175,None,12,232.73464965820312,-2,-3,0,-3,0,1,2,1,1757009615175092458
0,0.315186024,20250904141335175,None,12,232.73464965820312,-1,-1,-3,-3,0,0,1,-1,1757009615175211429
0,0.322581768,20250904141335182,None,12,232.97262573242188,-2,1,-2,-2,1,0,-1,-1,1757009615182631492
0,0.322664261,20250904141335182,None,12,232.97262573242188,-1,-4,0,-3,0,-1,-3,-2,1757009615182748317
0,0.337587834,20250904141335197,None,12,231.5447998046875,-1,-1,1,-1,-3,0,0,-1,1757009615197517156
0,0.337765694,20250904141335198,None,12,231.5447998046875,0,0,0,2,-1,1,-2,-3,1757009615197648286
0,0.344920874,20250904141335205,None,12,231.5447998046875,0,1,0,-1,0,-6,-2,1,1757009615205003499
0,0.345042467,20250904141335205,None,12,231.5447998046875,-2,-2,-1,-2,-1,-1,0,-3,1757009615205122470
0,0.3524189,20250904141335212,None,12,228.92713928222656,-2,-3,0,0,1,2,1,1,1757009615212514400
0,0.352557182,20250904141335212,None,12,228.92713928222656,-3,0,1,-1,-7,-5,-1,-1,1757009615212624788
0,0.367521525,20250904141335227,None,12,230.83090209960938,-2,-3,-1,-3,1,-2,-3,1,1757009615227534770
0,0.367626667,20250904141335227,None,12,230.83090209960938,2,-5,1,0,0,0,1,-1,1757009615227667808
0,0.375045061,20250904141335235,None,12,232.2587127685547,-1,-4,1,3,-4,-2,1,-1,1757009615235103130
0,0.375160933,20250904141335235,None,12,232.2587127685547,1,-1,-2,1,-1,0,0,-3,1757009615235253572
0,0.382510424,20250904141335242,None,12,232.2587127685547,-3,-4,-7,-4,-2,0,1,1,1757009615242554903
0,0.382686377,20250904141335242,None,12,230.35494995117188,2,-2,2,-1,-3,-2,-1,-2,1757009615242681503
0,0.397447586,20250904141335257,None,12,231.06886291503906,4,-1,0,1,-2,2,-2,-1,1757009615257506132
0,0.397550106,20250904141335257,None,12,231.06886291503906,-1,-4,-5,-1,-3,0,-1,-5,1757009615257632493
0,0.404905796,20250904141335265,None,12,231.06886291503906,-1,-1,-1,-4,-4,-3,-3,-3,1757009615264977455
0,0.405011654,20250904141335265,None,12,231.06886291503906,1,-4,-1,-3,-1,3,-2,0,1757009615265082359
0,0.412470818,20250904141335272,None,12,230.83090209960938,-1,-5,-3,-2,0,2,0,-2,1757009615272500753
0,0.412600756,20250904141335272,None,12,230.83090209960938,0,-4,-2,-2,1,-1,-3,1,1757009615272642135
0,0.427548409,20250904141335287,None,12,232.73464965820312,-3,-3,-5,-4,-2,-2,0,-1,1757009615287544488
0,0.427776814,20250904141335288,None,12,229.87901306152344,-4,1,1,0,1,0,0,-3,1757009615287678956
0,0.435079575,20250904141335295,None,12,229.87901306152344,-1,4,3,-3,-1,-5,-4,1,1757009615295083999
0,0.435185671,20250904141335295,None,12,229.87901306152344,-2,-3,-4,-2,-1,0,0,-3,1757009615295190811
0,0.442474842,20250904141335302,None,12,232.49668884277344,0,-2,-1,-3,-2,-1,1,-1,1757009615302493095
0,0.442577839,20250904141335302,None,12,232.49668884277344,0,-2,-1,-2,-5,-2,-3,0,1757009615302633523
0,0.457501888,20250904141335317,None,12,232.73464965820312,1,-1,-3,-1,-2,-1,-7,-1,1757009615317500352
0,0.457621813,20250904141335317,None,12,232.73464965820312,-2,-1,1,-2,0,-1,2,1,1757009615317621231
0,0.464968205,20250904141335325,None,12,230.1169891357422,-1,0,0,-2,3,-1,-3,-2,1757009615325002193
0,0.465111256,20250904141335325,None,12,230.1169891357422,1,2,-3,0,-5,-6,-1,-3,1757009615325116872
0,0.47242403,20250904141335332,None,12,230.1169891357422,0,0,-3,-3,-3,0,0,0,1757009615332497835
0,0.472531319,20250904141335332,None,12,230.1169891357422,1,-1,-3,0,0,1,-2,-3,1757009615332611560
0,0.487917185,20250904141335348,None,12,231.78277587890625,-3,-4,-1,-1,2,1,0,1,1757009615347499370
0,0.488116026,20250904141335348,None,12,231.78277587890625,-3,-3,-6,-3,-4,1,-4,0,1757009615347755670
0,0.503776789,20250904141335364,None,12,232.020751953125,-1,1,5,-2,-2,2,3,-1,1757009615363560199
0,0.504015684,20250904141335364,None,12,232.020751953125,0,5,2,2,1,-2,-3,-3,1757009615363737583
0,0.504169464,20250904141335364,None,12,232.020751953125,-1,0,-3,0,-4,-3,0,-1,1757009615364112854
0,0.504303932,20250904141335364,None,12,232.020751953125,2,-5,-1,-1,-1,2,1,1,1757009615364261388
0,0.517790556,20250904141335378,None,12,230.1169891357422,0,0,-2,2,-1,-3,-2,1,1757009615377553224
0,0.518050909,20250904141335378,None,12,230.1169891357422,-1,-3,-3,-3,-3,-1,0,-1,1757009615377720832
0,0.525277138,20250904141335385,None,12,232.97262573242188,1,-2,-2,-2,-4,-2,0,2,1757009615385105848
0,0.525503397,20250904141335385,None,12,232.97262573242188,-1,1,0,0,3,2,2,-1,1757009615385223627
0,0.5326612,20250904141335392,None,12,231.78277587890625,0,-3,-1,-1,-1,0,-2,2,1757009615392560720
0,0.532834292,20250904141335393,None,12,231.78277587890625,-3,3,-2,-2,-3,-4,-7,1,1757009615392689466
0,0.547594786,20250904141335407,None,12,232.97262573242188,3,2,-2,-1,1,1,3,-3,1757009615407567262
0,0.547713995,20250904141335407,None,12,232.97262573242188,-3,-2,0,0,1,1,-1,-1,1757009615407721757
0,0.55489707,20250904141335415,None,12,231.78277587890625,-2,-6,-1,1,-2,0,1,0,1757009615414976596
0,0.554973602,20250904141335415,None,12,231.78277587890625,0,0,2,1,-3,-1,0,-4,1757009615415085077
0,0.562541723,20250904141335422,None,12,232.2587127685547,-2,-1,0,-3,-4,-4,-1,-2,1757009615422518730
0,0.562670708,20250904141335422,None,12,232.2587127685547,0,-3,0,-1,-1,0,-6,-1,1757009615422631502
0,0.57752204,20250904141335437,None,12,232.020751953125,-2,2,-3,-1,1,-1,0,-1,1757009615437549829
0,0.577617884,20250904141335437,None,12,232.020751953125,-1,-1,0,-1,-3,-1,-2,0,1757009615437669515
0,0.585103512,20250904141335445,None,12,233.21060180664062,-2,-1,0,2,1,-3,1,0,1757009615445125102
0,0.58520174,20250904141335445,None,12,233.21060180664062,-2,-1,1,1,-3,4,0,-2,1757009615445259094
0,0.592545986,20250904141335452,None,12,233.21060180664062,-2,-2,-1,-2,0,-1,-4,0,1757009615452553510
0,0.592661858,20250904141335452,None,12,233.21060180664062,-1,-2,0,-2,0,-5,0,3,1757009615452693462
0,0.607532501,20250904141335467,None,12,233.21060180664062,-1,0,-1,-4,0,-2,0,-1,1757009615467517375
0,0.607629776,20250904141335467,None,12,233.21060180664062,-2,-3,1,-2,-1,-1,0,0,1757009615467637538
0,0.615021229,20250904141335475,None,12,231.3068389892578,1,2,1,0,2,1,0,-2,1757009615475032091
0,0.615134001,20250904141335475,None,12,231.3068389892578,-1,-4,-7,0,-3,1,1,0,1757009615475155115
0,0.62246275,20250904141335482,None,12,232.49668884277344,-5,-3,-2,0,1,5,4,0,1757009615482495069
0,0.622576237,20250904141335482,None,12,232.49668884277344,-1,-2,-3,-2,-4,-4,-4,-5,1757009615482649087
0,0.637472153,20250904141335497,None,12,231.5447998046875,0,0,0,-3,0,-3,-1,0,1757009615497542142
0,0.638105154,20250904141335498,None,12,231.5447998046875,-3,2,2,2,0,0,-1,0,1757009615497671127
0,0.645130158,20250904141335505,None,12,232.49668884277344,-3,0,-1,-2,2,-1,1,1,1757009615505090713
0,0.645290852,20250904141335505,None,12,232.49668884277344,1,-3,-2,-1,0,-1,1,1,1757009615505199193
0,0.652446509,20250904141335512,None,12,231.78277587890625,-6,-1,-1,-2,0,0,0,-3,1757009615512516498
0,0.652528048,20250904141335512,None,12,231.78277587890625,-2,-4,-1,-1,1,-4,0,-5,1757009615512629508
0,0.667583943,20250904141335527,None,12,231.3068389892578,-1,-4,-2,-1,-1,1,-1,2,1757009615527544498
0,0.667782307,20250904141335528,None,12,231.3068389892578,-3,1,0,-4,-3,-1,0,-5,1757009615527678728
0,0.674937964,20250904141335535,None,12,231.78277587890625,-2,-3,-2,0,-4,0,-3,2,1757009615534982919
0,0.675094366,20250904141335535,None,12,231.78277587890625,-2,-2,-4,-3,-1,-1,1,-5,1757009615535090923
0,0.682570458,20250904141335542,None,12,230.35494995117188,1,0,-2,2,-1,3,-2,1,1757009615542579650
0,0.682681084,20250904141335542,None,12,230.35494995117188,0,-4,1,1,0,0,2,1,1757009615542719841
0,0.697708845,20250904141335557,None,12,230.1169891357422,-2,2,1,-4,-1,-3,-1,-2,1757009615557700395
0,0.697842598,20250904141335558,None,12,230.1169891357422,1,2,-1,1,-1,-1,2,0,1757009615557853460
0,0.705596686,20250904141335565,None,12,231.78277587890625,-3,-5,-1,-2,-3,0,-5,1,1757009615565347909
0,0.705821037,20250904141335566,None,12,231.78277587890625,-1,-3,-5,1,-1,0,0,0,1757009615565531253
0,0.720164061,20250904141335580,None,12,229.64105224609375,-2,0,5,-1,-1,-1,1,-3,1757009615580110549
0,0.720295191,20250904141335580,None,12,229.64105224609375,-3,5,0,-2,0,0,-1,-3,1757009615580272674
0,0.727599144,20250904141335587,None,12,231.5447998046875,-4,0,-6,0,0,-1,-1,2,1757009615587582111
0,0.727733851,20250904141335588,None,12,231.5447998046875,0,0,-3,-3,0,2,-5,-3,1757009615587746858
0,0.734927654,20250904141335595,None,12,231.5447998046875,-1,-3,-1,-1,-1,1,-1,-3,1757009615594992637
0,0.735034466,20250904141335595,None,12,231.5447998046875,0,-3,0,-1,-1,1,1,-3,1757009615595121383
0,0.750163555,20250904141335610,None,12,231.5447998046875,0,1,-1,-3,2,0,1,1,1757009615610125303
0,0.75031519,20250904141335610,None,12,231.5447998046875,-2,2,0,1,1,3,5,-1,1757009615610320568
0,0.75766635,20250904141335617,None,12,232.73464965820312,-5,-2,-3,0,-1,-8,-6,-4,1757009615617615222
0,0.757835627,20250904141335618,None,12,232.73464965820312,-5,-4,-2,3,-3,-5,-3,1,1757009615617814064
0,0.765192032,20250904141335625,None,12,231.3068389892578,-2,1,0,0,0,-1,-2,-5,1757009615625167846
0,0.76534915,20250904141335625,None,12,231.3068389892578,-1,-3,0,0,1,-1,1,0,1757009615625353574
0,0.780422449,20250904141335640,None,12,231.06886291503906,-3,-4,-4,2,-2,0,-1,-1,1757009615640125513
0,0.780673981,20250904141335640,None,12,231.06886291503906,0,-5,-1,0,0,0,2,1,1757009615640261411
0,0.787538529,20250904141335647,None,12,231.06886291503906,0,-2,-2,1,0,-2,-1,-1,1757009615647516965
0,0.787730932,20250904141335647,None,12,233.4485626220703,-1,0,2,0,1,2,-2,-4,1757009615647668361
0,0.795084953,20250904141335655,None,12,233.4485626220703,0,-1,0,0,-1,-4,-2,-2,1757009615655070304
0,0.795215845,20250904141335655,None,12,233.4485626220703,-1,-1,-2,-3,-3,-2,-4,1,1757009615655263423
0,0.810202599,20250904141335670,None,12,233.92449951171875,-1,0,2,-4,2,0,2,-2,1757009615670140266
0,0.810352326,20250904141335670,None,12,233.92449951171875,-2,-2,-4,-2,-5,-3,-1,1,1757009615670277595
0,0.817875147,20250904141335678,None,12,233.21060180664062,-2,-1,-1,0,1,1,-3,1,1757009615677592992
0,0.818123818,20250904141335678,None,12,233.21060180664062,1,0,2,-2,0,1,0,-2,1757009615677742958
0,0.825124264,20250904141335685,None,12,233.21060180664062,-6,1,0,-3,-3,-4,0,-1,1757009615684988737
0,0.825342894,20250904141335685,None,12,233.21060180664062,0,-3,-3,0,-3,-1,-2,-2,1757009615685106754
0,0.840058804,20250904141335700,None,12,232.97262573242188,0,-2,-3,0,0,0,0,1,1757009615700021028
0,0.84028101,20250904141335700,None,12,232.97262573242188,1,3,-2,-1,-2,1,5,0,1757009615700145244
0,0.847508431,20250904141335707,None,12,231.5447998046875,0,-4,-5,-1,1,1,-7,-4,1757009615707523107
0,0.847651243,20250904141335707,None,12,231.5447998046875,1,1,3,-3,2,3,1,-1,1757009615707644224
0,0.855248213,20250904141335715,None,12,233.21060180664062,4,3,-3,-2,-2,-4,-1,0,1757009615714974403
0,0.855477572,20250904141335715,None,12,233.21060180664062,-2,4,-4,-2,3,1,0,-3,1757009615715078353
0,0.870379448,20250904141335730,None,12,233.21060180664062,1,-2,0,2,0,-3,-1,-3,1757009615730103492
0,0.870599032,20250904141335730,None,12,233.21060180664062,-2,-2,-1,-2,-3,0,-3,-1,1757009615730244874
0,0.877755165,20250904141335738,None,12,233.21060180664062,0,-2,-1,-2,0,2,2,1,1757009615737498521
0,0.877958059,20250904141335738,None,12,233.21060180664062,-1,-2,0,-1,0,-5,-5,-4,1757009615737685680
0,0.885463715,20250904141335745,None,12,231.06886291503906,1,1,-1,0,-4,-2,-2,-1,1757009615745160818
0,0.885683298,20250904141335745,None,12,231.06886291503906,0,-3,-2,-2,0,-2,-1,4,1757009615745291948
0,0.900424719,20250904141335760,None,12,231.78277587890625,-4,1,4,-4,-2,-3,0,-5,1757009615760121583
0,0.900674582,20250904141335760,None,12,231.78277587890625,0,0,-1,0,0,1,2,-1,1757009615760286092
0,0.907773256,20250904141335768,None,12,234.1624755859375,1,0,-4,1,-3,3,-1,-4,1757009615767519235
0,0.908114672,20250904141335768,None,12,234.1624755859375,-2,-1,1,2,1,-5,-1,0,1757009615767631053
0,0.915114403,20250904141335775,None,12,234.1624755859375,0,1,-3,1,-2,-2,0,-2,1757009615775052309
0,0.915356159,20250904141335775,None,12,234.1624755859375,-3,-3,0,1,-1,0,-3,-2,1757009615775323390
0,0.930213452,20250904141335790,None,12,232.020751953125,-6,-1,-2,0,-1,-1,-3,-4,1757009615790179491
0,0.930344105,20250904141335790,None,12,232.020751953125,0,-3,-2,-1,-1,-1,0,2,1757009615790365695
0,0.937510491,20250904141335797,None,12,232.2587127685547,-2,-4,1,-1,-1,2,-2,0,1757009615797554016
0,0.937604904,20250904141335797,None,12,232.2587127685547,2,-2,-2,-3,0,2,-1,1,1757009615797677516
0,0.9451406,20250904141335805,None,12,230.59292602539062,0,1,2,-1,-3,-2,0,-1,1757009615805156946
0,0.945246935,20250904141335805,None,12,230.59292602539062,-1,-2,-3,-3,1,-4,-1,0,1757009615805285692
0,0.960021973,20250904141335820,None,12,232.49668884277344,-1,0,-3,-1,-1,-2,-2,-4,1757009615820015668
0,0.960136414,20250904141335820,None,12,232.49668884277344,-3,0,-1,1,2,-2,-1,1,1757009615820189476
0,0.967627526,20250904141335827,None,12,230.59292602539062,-1,-3,2,-3,-3,-4,-1,-3,1757009615827604055
0,0.967755318,20250904141335828,None,12,230.59292602539062,1,5,1,-3,0,-1,1,1,1757009615827769041
0,0.975033283,20250904141335835,None,12,232.73464965820312,3,4,-2,1,-3,-3,-6,-1,1757009615835018396
0,0.975154162,20250904141335835,None,12,232.73464965820312,0,1,-1,-3,1,-1,-1,-1,1757009615835146188
0,0.990219355,20250904141335850,None,12,231.78277587890625,1,-3,-4,2,-3,0,1,2,1757009615850154161
0,0.990357876,20250904141335850,None,12,231.78277587890625,0,-2,-2,-1,-7,-4,-1,-4,1757009615850258350
0,0.997554541,20250904141335857,None,12,231.78277587890625,-1,1,-1,-4,-2,-1,1,-1,1757009615857538461
0,0.9979074,20250904141335858,None,12,231.78277587890625,0,-2,2,-1,2,0,1,0,1757009615857678174
0,1.005214214,20250904141335865,None,12,232.020751953125,-4,-2,-1,0,2,-1,2,-1,1757009615865136861
0,1.005379439,20250904141335865,None,12,232.020751953125,0,-3,-1,-5,-1,1,-3,-3,1757009615865295648
0,1.020065308,20250904141335880,None,12,232.97262573242188,-3,1,2,1,2,-1,-4,-2,1757009615880037546
0,1.020177126,20250904141335880,None,12,232.97262573242188,1,1,0,-3,-1,-1,0,0,1757009615880246639
0,1.027488947,20250904141335887,None,12,230.83090209960938,-3,-3,-2,-4,0,0,-2,-3,1757009615887556314
0,1.027566672,20250904141335887,None,12,230.83090209960938,0,2,1,-1,2,1,0,1,1757009615887696027
0,1.034913063,20250904141335895,None,12,230.83090209960938,2,-2,-1,-3,-3,1,-1,3,1757009615894961833
0,1.035030604,20250904141335895,None,12,230.83090209960938,-4,-3,0,-2,0,-2,-3,-7,1757009615895091772
0,1.05019784,20250904141335910,None,12,231.06886291503906,-4,-1,-1,-1,-2,-2,-1,-4,1757009615910181283
0,1.050323248,20250904141335910,None,12,231.06886291503906,-3,-1,1,0,-3,-4,-1,0,1757009615910351037
0,1.0575168129999999,20250904141335917,None,12,232.97262573242188,1,-2,0,-4,-3,-2,-2,0,1757009615917559146
0,1.057600498,20250904141335917,None,12,232.97262573242188,-1,1,-3,0,1,2,1,2,1757009615917727947
0,1.06522274,20250904141335925,None,12,230.1169891357422,0,1,1,-2,-5,-6,-3,-3,1757009615925122976
0,1.065391064,20250904141335925,None,12,230.1169891357422,-1,2,1,1,-1,-5,-4,-1,1757009615925271034
0,1.080062628,20250904141335940,None,12,231.06886291503906,0,-3,-6,-5,-2,1,-1,-3,1757009615940051555
0,1.080599547,20250904141335940,None,12,231.06886291503906,0,0,3,0,1,2,0,-3,1757009615940192937
0,1.087939024,20250904141335948,None,12,231.78277587890625,0,2,-2,-1,-4,-1,-1,-2,1757009615947524785
0,1.088548184,20250904141335948,None,12,231.78277587890625,0,-5,-2,-2,1,-1,-1,0,1757009615947645425
0,1.095123768,20250904141335955,None,12,231.5447998046875,-1,-2,-1,0,0,-1,2,1,1757009615955042600
0,1.095238447,20250904141335955,None,12,231.5447998046875,2,0,-2,2,0,-1,-5,0,1757009615955262184
0,1.110187531,20250904141335970,None,12,234.63841247558594,-3,2,0,-1,-5,-2,0,-3,1757009615970162868
0,1.110300064,20250904141335970,None,12,234.63841247558594,2,-1,-1,0,0,2,-1,0,1757009615970367908
0,1.117501259,20250904141335977,None,12,231.78277587890625,1,1,4,0,1,-3,2,2,1757009615977542161
0,1.117614508,20250904141335977,None,12,231.78277587890625,-1,3,-2,-3,-1,0,1,2,1757009615977670907
0,1.125170231,20250904141335985,None,12,235.11434936523438,-4,-2,-1,-1,-2,1,0,-1,1757009615985024929
0,1.125281573,20250904141335985,None,12,235.11434936523438,-1,-5,-1,-1,-1,1,-2,-1,1757009615985151529
0,1.140040159,20250904141336000,None,12,233.21060180664062,1,-2,0,-1,1,-2,1,-2,1757009616000049829
0,1.140144348,20250904141336000,None,12,233.21060180664062,-1,0,-3,-4,-1,-1,1,-1,1757009616000185489
0,1.147516966,20250904141336007,None,12,233.21060180664062,1,2,2,-4,1,-3,1,0,1757009616007544279
0,1.147601366,20250904141336007,None,12,233.21060180664062,0,-1,-4,-4,0,-3,0,0,1757009616007699728
0,1.155032635,20250904141336015,None,12,231.3068389892578,-3,-1,0,-1,-2,0,-1,2,1757009616015036344
0,1.155121565,20250904141336015,None,12,231.3068389892578,0,3,-1,-1,-3,0,2,-1,1757009616015157461
0,1.169912577,20250904141336030,None,12,231.78277587890625,0,-1,0,-1,-2,-2,-2,0,1757009616029957771
0,1.170194388,20250904141336030,None,12,231.78277587890625,2,1,-1,-1,-3,-1,1,2,1757009616030117750
0,1.177767515,20250904141336038,None,12,230.35494995117188,-1,-1,1,0,0,-2,-1,0,1757009616037585735
0,1.177922964,20250904141336038,None,12,230.35494995117188,-2,1,-4,-5,-8,-3,1,-3,1757009616037708044
0,1.185397148,20250904141336045,None,12,232.020751953125,0,-5,-6,0,2,1,-4,0,1757009616045222282
0,1.185557366,20250904141336045,None,12,232.020751953125,0,3,0,-1,0,0,1,1,1757009616045359611
0,1.200508595,20250904141336060,None,12,229.87901306152344,-2,2,3,0,-3,1,2,-4,1757009616060167312
0,1.200757027,20250904141336061,None,12,229.87901306152344,2,-4,-4,-3,-1,-1,0,-3,1757009616060302019
0,1.20775342,20250904141336068,None,12,232.49668884277344,1,1,1,3,3,2,1,-2,1757009616067514419
0,1.207949639,20250904141336068,None,12,232.49668884277344,-3,0,2,-2,-3,-2,-7,-4,1757009616067632198
0,1.215231657,20250904141336075,None,12,230.59292602539062,-2,-3,0,-1,0,5,-1,1,1757009616075009107
0,1.215428114,20250904141336075,None,12,230.59292602539062,-2,0,-5,-3,0,-2,1,-3,1757009616075135469
0,1.230387211,20250904141336090,None,12,233.21060180664062,1,-1,2,-1,1,-3,-1,1,1757009616090086936
0,1.2306218150000001,20250904141336090,None,12,233.21060180664062,-1,0,3,0,-1,0,1,-3,1757009616090238571
0,1.237656117,20250904141336097,None,12,231.3068389892578,-2,0,0,-2,-1,-1,4,0,1757009616097641468
0,1.23780179,20250904141336098,None,12,231.3068389892578,4,1,-3,0,-1,-1,-2,1,1757009616097758054
0,1.245183945,20250904141336105,None,12,232.73464965820312,-1,-3,-2,-3,-3,0,-4,-3,1757009616105192184
0,1.245298386,20250904141336105,None,12,232.73464965820312,-3,-2,1,0,-1,-1,-1,-2,1757009616105335950
0,1.2601022720000001,20250904141336120,None,12,230.83090209960938,0,4,0,1,1,2,2,-1,1757009616120112895
0,1.260218144,20250904141336120,None,12,230.83090209960938,1,0,-2,-3,-3,-1,-6,-3,1757009616120250463
0,1.267503262,20250904141336127,None,12,231.06886291503906,-4,-3,1,1,-2,1,1,-2,1757009616127578735
0,1.2676043510000001,20250904141336127,None,12,231.06886291503906,0,-1,1,3,0,-3,0,-3,1757009616127699613
0,1.275024176,20250904141336135,None,12,231.06886291503906,-1,-2,-1,-3,-3,1,1,-2,1757009616135102748
0,1.275110245,20250904141336135,None,12,231.06886291503906,-3,-1,-1,-1,0,1,-3,-2,1757009616135213375
0,1.290419102,20250904141336150,None,12,231.78277587890625,-2,-3,1,0,1,0,-2,0,1757009616150429725
0,1.290532828,20250904141336150,None,12,231.78277587890625,-1,0,0,-1,-3,1,-2,0,1757009616150596618
0,1.298038006,20250904141336158,None,12,230.1169891357422,-2,0,1,-2,-1,-3,0,-1,1757009616158011436
0,1.298231125,20250904141336158,None,12,230.1169891357422,-2,-1,-1,-2,-2,-2,-1,0,1757009616158217191
0,1.305345535,20250904141336165,None,12,232.97262573242188,-1,-1,-1,0,-3,-1,-2,1,1757009616165372610
0,1.305439949,20250904141336165,None,12,232.97262573242188,-2,0,3,-1,0,2,-3,-1,1757009616165540695
0,1.320198298,20250904141336180,None,12,230.1169891357422,4,0,-4,1,-2,-3,-1,2,1757009616180185794
0,1.3203151229999999,20250904141336180,None,12,230.1169891357422,-1,-2,-2,-4,-1,-4,0,-2,1757009616180329322
0,1.327612639,20250904141336187,None,12,232.2587127685547,-4,-3,4,-2,1,-1,-3,-1,1757009616187669515
0,1.327703715,20250904141336187,None,12,232.2587127685547,-2,-2,-2,1,0,-2,1,0,1757009616187785148
0,1.335087061,20250904141336195,None,12,231.78277587890625,-4,0,0,2,-6,1,0,-4,1757009616195148706
0,1.335182667,20250904141336195,None,12,231.78277587890625,-2,0,-3,2,4,2,0,-2,1757009616195252180
0,1.350181103,20250904141336210,None,12,232.020751953125,3,0,0,-1,0,-1,-5,0,1757009616210276126
0,1.3502852920000001,20250904141336210,None,12,232.020751953125,-1,-2,-1,1,-2,-2,0,6,1757009616210390567
0,1.357626677,20250904141336217,None,12,232.49668884277344,1,-3,1,0,-1,1,-2,-5,1757009616217681407
0,1.357707739,20250904141336217,None,12,232.49668884277344,-3,-3,-1,0,-2,-2,0,0,1757009616217807531
0,1.365084171,20250904141336225,None,12,231.06886291503906,0,-1,-1,0,0,-1,1,3,1757009616225137233
0,1.3651626110000001,20250904141336225,None,12,231.06886291503906,1,-2,1,-1,0,6,3,2,1757009616225260496
0,1.38017726,20250904141336240,None,12,229.87901306152344,-2,-2,0,-3,0,-6,-7,-1,1757009616240166664
0,1.380301953,20250904141336240,None,12,229.87901306152344,-4,-4,-2,0,-3,-6,-2,2,1757009616240362644
0,1.387602806,20250904141336247,None,12,232.73464965820312,0,-2,2,-1,1,0,1,-1,1757009616247574806
0,1.387682676,20250904141336247,None,12,232.73464965820312,-1,2,-2,-2,2,0,-1,0,1757009616247722148
0,1.39499712,20250904141336255,None,12,232.73464965820312,-1,-2,0,-1,-3,-1,-1,-3,1757009616255051374
0,1.39508152,20250904141336255,None,12,232.73464965820312,-1,0,-1,-2,0,-1,0,-2,1757009616255196571
0,1.4100277430000001,20250904141336270,None,12,232.49668884277344,1,0,-6,-3,1,1,0,0,1757009616270032882
0,1.410137177,20250904141336270,None,12,232.49668884277344,-4,-5,-1,0,-2,-2,-5,1,1757009616270179510
0,1.417493105,20250904141336277,None,12,231.3068389892578,-4,-3,0,1,-1,-2,-2,1,1757009616277536869
0,1.417610407,20250904141336277,None,12,231.3068389892578,-1,4,0,2,-1,-2,-1,-3,1757009616277678966
0,1.425118447,20250904141336285,None,12,230.35494995117188,-4,1,2,-2,-5,-4,1,-2,1757009616285148620
0,1.425205946,20250904141336285,None,12,230.35494995117188,-1,1,1,-2,0,1,5,0,1757009616285286188
0,1.440055132,20250904141336300,None,12,230.83090209960938,-1,-3,-3,-1,-3,-1,-3,-3,1757009616300065755
0,1.440150738,20250904141336300,None,12,230.83090209960938,0,1,-1,-2,0,2,3,0,1757009616300206899
0,1.447760821,20250904141336308,None,12,230.35494995117188,-3,-2,-1,2,3,2,-3,4,1757009616307794332
0,1.447845936,20250904141336308,None,12,230.35494995117188,0,1,-3,-4,-3,-4,-2,-4,1757009616307973384
0,1.455467463,20250904141336315,None,12,232.73464965820312,-1,3,2,2,-1,-2,0,-2,1757009616315511703
0,1.455539465,20250904141336315,None,12,232.73464965820312,-1,-1,-1,-1,-2,2,2,-4,1757009616315673828
0,1.4699969290000001,20250904141336330,None,12,230.83090209960938,0,-3,-1,1,-1,-2,2,0,1757009616330038785
0,1.470089436,20250904141336330,None,12,230.83090209960938,3,1,-1,-2,-2,-2,-5,-2,1757009616330176830
0,1.477486134,20250904141336337,None,12,233.4485626220703,-1,-2,-2,-2,-2,1,0,-4,1757009616337550163
0,1.47756815,20250904141336337,None,12,233.4485626220703,0,-5,-3,0,-3,-4,0,-2,1757009616337699413
0,1.485046864,20250904141336345,None,12,231.3068389892578,-2,3,-4,-2,-4,-1,-1,4,1757009616345105648
0,1.4851307870000001,20250904141336345,None,12,231.3068389892578,-1,-3,0,1,-1,-1,-1,-4,1757009616345251560
0,1.500519514,20250904141336360,None,12,231.78277587890625,-5,-3,0,0,1,1,-3,1,1757009616360450983
0,1.500678063,20250904141336360,None,12,231.78277587890625,0,1,-2,-3,0,-2,0,2,1757009616360687255
0,1.507817507,20250904141336368,None,12,232.2587127685547,0,-1,-2,2,-1,-3,1,-3,1757009616367830753
0,1.507924557,20250904141336368,None,12,232.2587127685547,-2,-3,-4,-2,-1,-1,-3,-3,1757009616368038654
0,1.5153682229999998,20250904141336375,None,12,232.2587127685547,-3,1,3,-2,-6,-2,0,-2,1757009616375444173
0,1.51552105,20250904141336375,None,12,232.2587127685547,2,3,0,3,0,1,1,-2,1757009616375643968
0,1.530375719,20250904141336390,None,12,231.5447998046875,-2,-2,-1,2,1,3,2,-1,1757009616390391349
0,1.53049326,20250904141336390,None,12,231.5447998046875,-1,-4,-2,-6,-6,-3,-1,1,1757009616390601634
0,1.537735224,20250904141336397,None,12,232.97262573242188,1,-3,-3,-2,0,-2,1,2,1757009616397781133
0,1.5378952030000002,20250904141336398,None,12,232.97262573242188,-2,2,6,-1,2,0,-1,-1,1757009616397980690
0,1.545518398,20250904141336405,None,12,230.1169891357422,0,0,-1,0,-2,-2,-3,1,1757009616405502319
0,1.5456221110000001,20250904141336405,None,12,230.1169891357422,-3,-1,-3,-2,0,-4,-1,-2,1757009616405698060
0,1.560207606,20250904141336420,None,12,232.73464965820312,-3,1,-1,-4,-1,0,-2,1,1757009616420222520
0,1.560308695,20250904141336420,None,12,232.73464965820312,-2,-2,-2,-4,-1,1,0,0,1757009616420437097
0,1.567664623,20250904141336427,None,12,229.403076171875,-3,1,-2,-1,-1,1,0,0,1757009616427728891
0,1.567777395,20250904141336428,None,12,229.403076171875,0,2,0,0,-2,-1,0,-1,1757009616427890777
0,1.575160265,20250904141336435,None,12,232.020751953125,-1,1,-2,-2,-1,-1,-3,1,1757009616435212612
0,1.575247288,20250904141336435,None,12,232.020751953125,-2,-2,1,0,1,1,4,2,1757009616435373067
0,1.59028244,20250904141336450,None,12,231.5447998046875,-2,1,-1,0,-1,-3,-2,-1,1757009616450217485
0,1.590472222,20250904141336450,None,12,232.020751953125,0,-1,-4,-4,-2,-3,-4,-4,1757009616450544595
0,1.59748745,20250904141336457,None,12,232.020751953125,-1,0,0,-3,-1,2,3,0,1757009616457547187
0,1.597594261,20250904141336457,None,12,232.020751953125,-1,0,1,-1,1,0,-5,-2,1757009616457695484
0,1.6051700119999999,20250904141336465,None,12,232.49668884277344,-3,-1,-2,-1,1,-1,1,0,1757009616465166091
0,1.605241299,20250904141336465,None,12,232.49668884277344,0,0,2,-1,-3,-3,2,0,1757009616465256690
0,1.620147467,20250904141336480,None,12,231.3068389892578,2,0,-1,0,4,2,0,1,1757009616480076551
0,1.620294571,20250904141336480,None,12,231.3068389892578,-1,-5,-1,2,-4,-3,-1,-4,1757009616480247497
0,1.627499104,20250904141336487,None,12,232.73464965820312,-3,2,-1,0,-2,-1,1,-4,1757009616487549781
0,1.62759471,20250904141336487,None,12,232.73464965820312,2,-2,-1,-2,2,-3,0,-1,1757009616487687349
0,1.635009766,20250904141336495,None,12,231.06886291503906,-1,-1,-5,-3,1,1,-1,-1,1757009616495041370
0,1.635093451,20250904141336495,None,12,231.06886291503906,0,-5,2,-3,0,-2,-2,3,1757009616495174407
0,1.6499242779999999,20250904141336510,None,12,229.64105224609375,0,2,0,0,0,-4,0,2,1757009616510001182
0,1.650012493,20250904141336510,None,12,229.64105224609375,0,-1,-5,0,1,-3,-1,0,1757009616510135650
0,1.6575679779999999,20250904141336517,None,12,231.5447998046875,-4,-3,-1,-2,-4,1,2,-4,1757009616517538070
0,1.6576964859999999,20250904141336517,None,12,231.5447998046875,-2,-1,0,-2,-4,-3,-3,-1,1757009616517674684
0,1.6726684569999999,20250904141336532,None,12,231.06886291503906,5,7,-3,2,-3,1,0,-2,1757009616532645463
0,1.6727559570000001,20250904141336533,None,12,231.06886291503906,-1,-2,-4,-1,0,1,0,0,1757009616532806634
0,1.680056811,20250904141336540,None,12,231.06886291503906,0,2,0,4,-1,1,2,-1,1757009616540088891
0,1.680151463,20250904141336540,None,12,231.06886291503906,1,0,-1,-3,-1,0,2,2,1757009616540264844
0,1.687459707,20250904141336547,None,12,231.5447998046875,-3,-3,1,-3,0,0,-1,-8,1757009616547503471
0,1.687537193,20250904141336547,None,12,231.5447998046875,1,1,-1,1,-2,4,0,0,1757009616547622442
0,1.702652455,20250904141336562,None,12,232.73464965820312,2,-4,0,0,-4,-6,-1,2,1757009616562626123
0,1.702754498,20250904141336563,None,12,232.73464965820312,-1,0,-3,-3,2,-5,-5,-2,1757009616562789440
0,1.710004807,20250904141336570,None,12,232.73464965820312,-1,1,0,-3,-3,0,-3,1,1757009616570043087
0,1.710640669,20250904141336570,None,12,230.35494995117188,-2,-2,0,-3,-1,-3,-1,-4,1757009616570197105
0,1.717681408,20250904141336577,None,12,230.35494995117188,-1,-1,-1,1,-1,0,0,-1,1757009616577572584
0,1.7178976540000002,20250904141336578,None,12,230.35494995117188,-2,-4,-4,-3,-2,0,0,0,1757009616577733993
0,1.732573033,20250904141336592,None,12,230.83090209960938,-2,0,1,1,-2,-2,-4,0,1757009616592528104
0,1.732729674,20250904141336592,None,12,230.83090209960938,1,-3,3,0,-1,0,-3,-1,1757009616592684984
0,1.7400093079999999,20250904141336600,None,12,232.97262573242188,0,-5,-3,-1,0,-3,-1,-1,1757009616600027322
0,1.740130902,20250904141336600,None,12,232.97262573242188,-2,-4,2,1,0,2,-2,0,1757009616600143194
0,1.747529984,20250904141336607,None,12,232.49668884277344,0,3,3,-2,2,-1,-3,2,1757009616607560396
0,1.747680426,20250904141336607,None,12,232.49668884277344,0,-2,-1,-3,-3,-3,-4,-4,1757009616607756137
0,1.762561083,20250904141336622,None,12,233.21060180664062,-1,-1,0,1,-1,1,0,1,1757009616622562885
0,1.762689591,20250904141336622,None,12,233.21060180664062,-1,-4,0,-1,0,1,-1,3,1757009616622712135
0,1.769992113,20250904141336630,None,12,232.2587127685547,-1,-1,-1,1,0,-3,1,-2,1757009616630028724
0,1.770087481,20250904141336630,None,12,232.2587127685547,-1,0,-1,1,-1,-2,-2,-1,1757009616630163431
0,1.7850365639999999,20250904141336645,None,12,233.21060180664062,0,2,-2,0,1,-1,-2,-1,1757009616645057201
0,1.785157442,20250904141336645,None,12,233.21060180664062,1,0,-2,0,-1,0,0,-1,1757009616645200967
0,1.792441368,20250904141336652,None,12,233.21060180664062,-1,0,1,0,3,1,-1,0,1757009616652534723
0,1.7925372130000001,20250904141336652,None,12,233.21060180664062,4,5,-2,-2,-5,-1,0,-1,1757009616652675390
0,1.800584793,20250904141336660,None,12,230.1169891357422,-3,-3,0,-4,3,3,-1,-2,1757009616660186052
0,1.8008213039999998,20250904141336661,None,12,230.1169891357422,-1,-2,0,0,1,-1,1,3,1757009616660415887
0,1.807688952,20250904141336667,None,12,232.73464965820312,-1,0,-6,-2,-1,-3,-4,1,1757009616667678356
0,1.807822704,20250904141336668,None,12,232.73464965820312,3,0,-2,0,-1,0,1,-1,1757009616667854309
0,1.822644234,20250904141336682,None,12,232.73464965820312,0,-3,0,0,-1,0,-1,2,1757009616682668685
0,1.8227653510000001,20250904141336683,None,12,232.73464965820312,-4,-2,-1,2,-1,-2,-2,2,1757009616682802200
0,1.830219507,20250904141336690,None,12,231.06886291503906,-4,-4,-4,1,-1,0,-2,-1,1757009616690241575
0,1.8303413389999998,20250904141336690,None,12,231.06886291503906,-2,3,4,1,-3,-1,-1,1,1757009616690378904
0,1.837875366,20250904141336698,None,12,231.06886291503906,2,1,-3,-5,1,2,0,-1,1757009616697882652
0,1.837973833,20250904141336698,None,12,231.06886291503906,0,0,0,1,0,-1,-1,2,1757009616698086977
0,1.853060723,20250904141336713,None,12,231.78277587890625,-1,0,-2,0,0,3,2,5,1757009616712984085
0,1.853190899,20250904141336713,None,12,231.78277587890625,0,-1,-3,-1,2,2,-2,-3,1757009616713163614
0,1.860081434,20250904141336720,None,12,232.2587127685547,-4,-4,-3,-3,-3,-5,-7,-1,1757009616720129728
0,1.860159159,20250904141336720,None,12,232.2587127685547,-1,1,2,-1,-2,-4,-1,1,1757009616720258474
0,1.867615223,20250904141336727,None,12,232.97262573242188,0,0,-4,1,2,0,2,-1,1757009616727645158
0,1.8677167890000002,20250904141336727,None,12,232.97262573242188,-3,3,-6,-2,-1,-3,-2,-4,1757009616727771043
0,1.882724762,20250904141336742,None,12,229.87901306152344,-4,-3,-1,0,1,-1,2,-2,1757009616742712259
0,1.882853747,20250904141336743,None,12,229.87901306152344,2,-3,-3,-3,-2,0,0,-2,1757009616742889404
0,1.8900258540000001,20250904141336750,None,12,232.73464965820312,2,1,-3,1,-1,1,-2,-2,1757009616750027894
0,1.890142679,20250904141336750,None,12,232.73464965820312,0,-2,1,0,-1,-3,-1,2,1757009616750188589
0,1.8974797730000001,20250904141336757,None,12,230.83090209960938,-2,-1,-1,1,1,-2,-4,-3,1757009616757510423
0,1.8975887299999998,20250904141336757,None,12,230.83090209960938,-2,-1,-1,-3,-2,0,-3,-4,1757009616757639646
0,1.912558317,20250904141336772,None,12,233.21060180664062,1,-2,-2,-3,2,-4,0,4,1757009616772530794
0,1.912709236,20250904141336772,None,12,233.21060180664062,-2,0,-3,-3,-2,-1,1,-1,1757009616772659540
0,1.920003176,20250904141336780,None,12,231.06886291503906,-4,-4,0,0,2,3,0,0,1757009616780031204
0,1.920139313,20250904141336780,None,12,231.06886291503906,-1,4,-1,-2,-3,0,-3,-1,1757009616780107498
0,1.9274759289999999,20250904141336787,None,12,232.73464965820312,0,3,0,0,1,-1,-2,-4,1757009616787546873
0,1.9275674820000002,20250904141336787,None,12,232.73464965820312,0,-2,-8,0,0,-3,0,-2,1757009616787678956
0,1.942491055,20250904141336802,None,12,233.4485626220703,1,-1,0,-2,-1,1,1,-1,1757009616802540540
0,1.942620754,20250904141336802,None,12,233.4485626220703,-2,-6,-3,-2,-4,-3,-2,0,1757009616802674531
0,1.949988842,20250904141336810,None,12,233.4485626220703,-2,-5,-2,3,-2,-2,-2,1,1757009616810067892
0,1.950083256,20250904141336810,None,12,233.4485626220703,0,0,-1,0,0,1,-1,-2,1757009616810196876
0,1.957498789,20250904141336817,None,12,232.97262573242188,0,-5,0,-3,-9,-5,0,1,1757009616817534923
0,1.957594872,20250904141336817,None,12,232.97262573242188,-1,0,1,-1,0,-2,2,-2,1757009616817664861
0,1.972596169,20250904141336832,None,12,230.59292602539062,-3,-4,-3,-1,-3,-2,-5,-3,1757009616832568883
0,1.972732067,20250904141336832,None,12,230.59292602539062,-1,3,5,-4,-3,-1,1,0,1757009616832739353
0,1.979956389,20250904141336840,None,12,229.87901306152344,0,3,-2,-3,0,0,3,-1,1757009616840005874
0,1.980057001,20250904141336840,None,12,229.87901306152344,-1,-3,-2,-1,-3,-4,-3,0,1757009616840124130
0,1.995068073,20250904141336855,None,12,232.73464965820312,-1,-3,1,0,2,7,0,3,1757009616855052232
0,1.9951808450000001,20250904141336855,None,12,232.73464965820312,-2,-2,-1,2,-1,-6,-2,-2,1757009616855189561
0,2.002485991,20250904141336862,None,12,231.06886291503906,2,2,-2,-3,1,-3,-1,3,1757009616862520933
0,2.002584696,20250904141336862,None,12,231.06886291503906,-2,-5,-1,-5,-1,0,-5,-5,1757009616862656116
0,2.010028839,20250904141336870,None,12,232.49668884277344,-1,-1,0,0,-1,2,0,0,1757009616870023727
0,2.010181904,20250904141336870,None,12,232.49668884277344,-1,-3,-1,-4,-2,0,-2,1,1757009616870153427
0,2.017469645,20250904141336877,None,12,231.06886291503906,-3,-1,1,-1,0,1,2,-1,1757009616877547502
0,2.017561674,20250904141336877,None,12,231.06886291503906,-1,3,1,-2,1,0,-3,-1,1757009616877689838
0,2.032515288,20250904141336892,None,12,231.78277587890625,1,2,0,-2,-1,2,-2,-1,1757009616892572879
0,2.032616377,20250904141336892,None,12,231.78277587890625,-4,-1,1,4,-2,1,-1,0,1757009616892713785
0,2.040018797,20250904141336900,None,12,231.78277587890625,-1,1,1,-2,-4,-1,3,0,1757009616900078058
0,2.040104151,20250904141336900,None,12,231.78277587890625,-1,-3,-2,-2,-1,-1,-5,1,1757009616900208950
0,2.047419548,20250904141336907,None,12,231.3068389892578,-5,-4,0,-2,-2,-4,-3,1,1757009616907496690
0,2.04750967,20250904141336907,None,12,231.3068389892578,-1,3,2,2,-1,-1,1,0,1757009616907613039
0,2.062483311,20250904141336922,None,12,230.83090209960938,0,2,-1,1,1,1,0,-2,1757009616922542810
0,2.06260109,20250904141336922,None,12,230.83090209960938,-2,-3,0,-3,-2,-3,-3,1,1757009616922681570
0,2.069879532,20250904141336930,None,12,231.78277587890625,-2,1,0,-1,-1,1,-1,1,1757009616929999351
0,2.069958687,20250904141336930,None,12,231.78277587890625,-1,-1,-1,-1,1,3,2,3,1757009616930108070
0,2.077480316,20250904141336937,None,12,231.78277587890625,1,-4,-1,0,-1,1,-6,-2,1757009616937560081
0,2.077556372,20250904141336937,None,12,231.78277587890625,-2,-5,-5,-2,-2,-3,0,-6,1757009616937701702
0,2.092637301,20250904141336952,None,12,232.2587127685547,-1,4,5,-5,-1,0,-2,0,1757009616952641248
0,2.09273839,20250904141336952,None,12,232.2587127685547,-2,0,0,-2,-2,0,-3,-1,1757009616952787876
0,2.100088597,20250904141336960,None,12,231.06886291503906,-1,-2,1,0,0,-1,0,1,1757009616960155248
0,2.10018158,20250904141336960,None,12,231.06886291503906,0,0,-3,-4,0,1,2,-2,1757009616960264921
0,2.107619286,20250904141336967,None,12,232.2587127685547,0,2,-3,-1,-2,1,-1,-1,1757009616967677593
0,2.1077098850000002,20250904141336967,None,12,232.2587127685547,0,-2,-3,1,-3,-1,-3,-3,1757009616967795133
0,2.12264061,20250904141336982,None,12,232.2587127685547,-1,0,1,0,3,-1,-1,1,1757009616982663869
0,2.122745276,20250904141336983,None,12,232.2587127685547,-1,-3,-2,-2,-3,-2,2,1,1757009616982784748
0,2.13005209,20250904141336990,None,12,231.3068389892578,-3,-1,-2,1,1,1,-1,-1,1757009616990107059
0,2.130148411,20250904141336990,None,12,231.3068389892578,-1,-1,4,-1,-3,-7,-1,-1,1757009616990216255
0,2.137630224,20250904141336997,None,12,231.78277587890625,0,-2,-1,-5,-4,-3,-3,-1,1757009616997645616
0,2.137744904,20250904141336998,None,12,231.78277587890625,0,-2,-2,-2,-3,-3,0,0,1757009616997764587
0,2.152594328,20250904141337012,None,12,235.59030151367188,0,-3,-5,-3,-2,3,-1,-2,1757009617012642383
0,2.152674198,20250904141337012,None,12,235.59030151367188,0,-1,-1,0,2,-1,-4,1,1757009617012772321
0,2.160135269,20250904141337020,None,12,235.59030151367188,-2,-3,-3,-2,-3,1,-2,-3,1757009617020188331
0,2.160251379,20250904141337020,None,12,235.59030151367188,-2,-1,1,-1,-1,0,-1,2,1757009617020335674
0,2.167620659,20250904141337027,None,12,232.2587127685547,-2,1,2,-4,-4,-3,-4,-4,1757009617027687072
0,2.167707205,20250904141337027,None,12,232.2587127685547,0,4,-2,-4,-1,2,2,2,1757009617027826786
0,2.182412863,20250904141337042,None,12,230.83090209960938,0,-4,-2,-1,-2,-2,-1,-3,1757009617042531251
0,2.182468891,20250904141337042,None,12,230.83090209960938,1,2,4,-3,-1,0,-3,-1,1757009617042630672
0,2.190093994,20250904141337050,None,12,231.3068389892578,1,-2,-1,-4,-1,-3,0,-1,1757009617050145864
0,2.190248251,20250904141337050,None,12,231.3068389892578,-2,0,0,0,0,1,-3,-1,1757009617050258636
0,2.197482586,20250904141337057,None,12,231.3068389892578,-2,1,3,5,1,-3,0,1,1757009617057581424
0,2.197573185,20250904141337057,None,12,231.3068389892578,0,-5,-1,-1,-8,0,2,0,1757009617057718992
0,2.212725401,20250904141337072,None,12,232.020751953125,-3,-3,-3,1,2,0,-2,0,1757009617072746515
0,2.212827444,20250904141337073,None,12,232.020751953125,2,0,1,-1,0,-2,-3,-3,1757009617072893142
0,2.220171213,20250904141337080,None,12,232.97262573242188,-1,2,-1,0,-2,0,0,-2,1757009617080223560
0,2.220261574,20250904141337080,None,12,232.97262573242188,2,-3,-1,1,2,0,5,0,1757009617080377578
0,2.227701426,20250904141337087,None,12,231.3068389892578,1,3,3,-2,0,-1,-5,-3,1757009617087737798
0,2.22781682,20250904141337088,None,12,231.3068389892578,1,3,0,-2,0,4,1,-2,1757009617087893247
0,2.242521525,20250904141337102,None,12,232.97262573242188,-3,-2,-3,-2,1,-2,0,-2,1757009617102577686
0,2.242676258,20250904141337102,None,12,232.97262573242188,1,2,-1,0,-2,-2,-1,0,1757009617102717638
0,2.249897242,20250904141337110,None,12,230.59292602539062,-1,2,-4,-1,0,-1,-3,-2,1757009617110006570
0,2.249974489,20250904141337110,None,12,230.59292602539062,0,0,3,-1,-3,0,1,0,1757009617110084772
0,2.257468939,20250904141337117,None,12,232.73464965820312,1,-2,-3,2,0,-3,1,-1,1757009617117554187
0,2.257555247,20250904141337117,None,12,232.73464965820312,1,2,0,-1,0,3,-2,-2,1757009617117681741
0,2.272609234,20250904141337132,None,12,231.06886291503906,-1,-3,-3,-2,-1,-6,-5,0,1757009617132592201
0,2.272732496,20250904141337132,None,12,231.06886291503906,-2,-3,0,0,0,-5,1,-4,1757009617132757425
0,2.280010462,20250904141337140,None,12,232.49668884277344,3,-2,-5,-2,2,3,1,-4,1757009617140094757
0,2.280096054,20250904141337140,None,12,232.49668884277344,-2,0,-2,-3,-9,-1,0,0,1757009617140253543
0,2.287748575,20250904141337148,None,12,231.5447998046875,1,-1,0,1,-1,-2,-1,-2,1757009617147747039
0,2.287862778,20250904141337148,None,12,231.5447998046875,-1,5,-1,2,-2,3,0,3,1757009617147918939
0,2.302758217,20250904141337163,None,12,231.78277587890625,-1,-2,3,-3,0,-1,-1,-3,1757009617162751197
0,2.302874327,20250904141337163,None,12,231.78277587890625,-1,-4,-3,0,0,-2,-2,-3,1757009617162925720
0,2.310182095,20250904141337170,None,12,231.78277587890625,1,0,0,-1,-1,-3,1,-2,1757009617170205354
0,2.310284138,20250904141337170,None,12,231.78277587890625,1,-3,2,0,-1,-1,-1,1,1757009617170394420
0,2.317641258,20250904141337177,None,12,232.2587127685547,-1,0,-1,1,1,-1,0,0,1757009617177695751
0,2.317762137,20250904141337178,None,12,232.2587127685547,1,1,-1,1,1,-1,-1,-2,1757009617177863597
0,2.332752466,20250904141337193,None,12,231.3068389892578,-2,0,0,-1,-3,-2,1,-4,1757009617192760229
0,2.332899571,20250904141337193,None,12,231.3068389892578,1,-1,1,-1,-1,-2,-3,0,1757009617192937135
0,2.340369225,20250904141337200,None,12,233.21060180664062,0,-1,0,-3,0,-1,-1,1,1757009617200262546
0,2.340552807,20250904141337200,None,12,233.21060180664062,2,-5,-2,-1,0,-1,0,1,1757009617200608015
0,2.347517967,20250904141337207,None,12,231.5447998046875,-1,-5,-1,1,0,0,-3,0,1757009617207579851
0,2.347607374,20250904141337207,None,12,231.5447998046875,0,0,-2,-1,2,2,-1,-2,1757009617207728147
0,2.362609863,20250904141337222,None,12,232.020751953125,0,0,0,-2,-6,-3,-1,-1,1757009617222562789
0,2.362781525,20250904141337223,None,12,232.020751953125,-4,-4,-3,1,1,0,1,-4,1757009617222701787
0,2.378257752,20250904141337238,None,12,231.06886291503906,1,-3,-1,-2,2,-1,-1,-1,1757009617238204956
0,2.378408671,20250904141337238,None,12,231.06886291503906,0,-3,0,-1,3,-3,0,1,1757009617238371849
0,2.378845692,20250904141337239,None,12,231.06886291503906,-5,-2,-3,-1,-2,-1,0,1,1757009617238950729
0,2.37893939,20250904141337239,None,12,231.06886291503906,-3,-2,-2,0,-1,6,-1,0,1757009617239069461
0,2.392477274,20250904141337252,None,12,232.49668884277344,1,2,3,0,0,-5,-3,-3,1757009617252487421
0,2.392603636,20250904141337252,None,12,232.49668884277344,1,-3,-3,-3,-1,-6,2,3,1757009617252609252
0,2.400007725,20250904141337260,None,12,231.06886291503906,2,0,-2,-2,-2,-1,2,-2,1757009617259996414
0,2.400129795,20250904141337260,None,12,231.06886291503906,0,2,-1,2,-1,2,-3,2,1757009617260119438
0,2.40745616,20250904141337267,None,12,232.2587127685547,-2,-3,-2,-3,-5,-2,-1,-3,1757009617267491817
0,2.407571554,20250904141337267,None,12,232.2587127685547,-2,-5,-1,-1,3,2,2,3,1757009617267611980
0,2.42254138,20250904141337282,None,12,235.59030151367188,-4,0,-4,0,1,-4,-5,-5,1757009617282515525
0,2.422677756,20250904141337282,None,12,235.59030151367188,2,0,1,1,-2,0,1,-1,1757009617282654523
0,2.429949522,20250904141337290,None,12,235.59030151367188,3,-1,-3,-1,-1,-3,0,0,1757009617289970397
0,2.4300808910000002,20250904141337290,None,12,235.59030151367188,-1,-2,0,-1,-2,-2,-2,-3,1757009617290088653
0,2.437433005,20250904141337297,None,12,230.59292602539062,-1,-1,1,-2,2,0,5,-2,1757009617297487497
0,2.437545538,20250904141337297,None,12,230.59292602539062,-4,1,-4,-2,-8,-5,-1,-1,1757009617297627925
0,2.452511788,20250904141337312,None,12,231.5447998046875,2,-2,-4,0,-3,0,1,-2,1757009617312544107
0,2.452604771,20250904141337312,None,12,231.5447998046875,-2,-3,-5,2,3,1,0,-2,1757009617312678575
0,2.459946871,20250904141337320,None,12,232.020751953125,0,-3,-3,1,-3,-4,-3,-3,1757009617319996833
0,2.46006155,20250904141337320,None,12,232.020751953125,-3,-4,0,-1,2,1,3,0,1757009617320130586
0,2.467409611,20250904141337327,None,12,231.3068389892578,2,2,0,-1,-2,-1,-7,1,1757009617327517509
0,2.467490196,20250904141337327,None,12,231.3068389892578,2,-3,0,0,-2,-2,-1,-1,1757009617327628612
0,2.482526779,20250904141337342,None,12,230.59292602539062,-1,-4,-4,-5,-4,2,1,-4,1757009617342541456
0,2.482624769,20250904141337342,None,12,230.59292602539062,1,-3,-4,-1,2,-1,-1,0,1757009617342675924
0,2.489960194,20250904141337350,None,12,232.2587127685547,1,0,2,-4,-5,-2,4,1,1757009617349997520
0,2.49008131,20250904141337350,None,12,232.2587127685547,-1,2,-1,0,-1,0,-2,1,1757009617350118160
0,2.497524977,20250904141337357,None,12,230.35494995117188,1,-1,-3,0,-1,-1,-2,-4,1757009617357551813
0,2.497623205,20250904141337357,None,12,230.35494995117188,-1,1,0,-3,-1,-1,1,0,1757009617357697963
0,2.5125415330000003,20250904141337372,None,12,230.59292602539062,-1,-5,-5,-6,-1,5,2,0,1757009617372573375
0,2.512656927,20250904141337372,None,12,230.59292602539062,-3,2,-4,-3,3,0,1,2,1757009617372760772
0,2.520298958,20250904141337380,None,12,230.59292602539062,-3,-2,-2,-1,-5,-1,-1,-5,1757009617380339145
0,2.520392895,20250904141337380,None,12,230.59292602539062,1,0,2,0,1,-2,-2,0,1757009617380512475
0,2.527835608,20250904141337388,None,12,231.5447998046875,-2,-2,1,-1,-2,3,1,-1,1757009617387825489
0,2.527927637,20250904141337388,None,12,231.5447998046875,1,-3,-2,-3,2,1,0,1,1757009617388012647
0,2.542463541,20250904141337402,None,12,231.5447998046875,1,-1,-1,-3,0,-2,-3,1,1757009617402505636
0,2.542569161,20250904141337402,None,12,231.5447998046875,-1,-1,-6,-1,-1,-2,0,1,1757009617402636289
0,2.549893618,20250904141337410,None,12,232.020751953125,-3,-4,4,0,4,-3,-1,-3,1757009617409969091
0,2.55001092,20250904141337410,None,12,232.020751953125,3,7,1,-3,1,-3,-2,-2,1757009617410077810
0,2.5575885769999998,20250904141337417,None,12,232.020751953125,-1,0,-3,3,1,1,0,0,1757009617417495012
0,2.55776453,20250904141337418,None,12,232.020751953125,-3,-1,1,-4,-2,-1,-3,-4,1757009617417609691
0,2.572480202,20250904141337432,None,12,232.49668884277344,-2,-1,-3,1,-4,0,2,-2,1757009617432505607
0,2.572600842,20250904141337432,None,12,232.49668884277344,0,-2,1,-2,-4,0,-1,-2,1757009617432614564
0,2.580006123,20250904141337440,None,12,230.83090209960938,0,-1,-3,0,0,3,1,1,1757009617440013885
0,2.580111981,20250904141337440,None,12,230.83090209960938,-5,-1,-2,-2,1,-1,0,-4,1757009617440161466
0,2.587542772,20250904141337447,None,12,233.21060180664062,0,2,-3,2,-1,0,2,-4,1757009617447523593
0,2.587714672,20250904141337447,None,12,233.21060180664062,2,-5,-6,-5,-2,0,4,1,1757009617447656631
0,2.602656126,20250904141337462,None,12,230.83090209960938,2,2,2,-4,0,-2,-1,1,1757009617462556123
0,2.602801085,20250904141337463,None,12,230.83090209960938,-2,2,0,2,5,0,-1,-1,1757009617462716817
0,2.610211849,20250904141337470,None,12,232.97262573242188,2,-1,-3,-2,-5,-4,1,3,1757009617470057964
0,2.610407829,20250904141337470,None,12,232.97262573242188,-5,1,0,-1,-4,-4,-6,-6,1757009617470223426
0,2.625095129,20250904141337485,None,12,235.59030151367188,1,-5,0,-1,0,2,-3,-3,1757009617485057830
0,2.6252574920000002,20250904141337485,None,12,235.59030151367188,-4,-3,-1,-1,-4,-1,1,1,1757009617485207319
0,2.632533074,20250904141337492,None,12,235.59030151367188,0,-1,-2,-3,1,2,-4,0,1757009617492565870
0,2.632749796,20250904141337493,None,12,233.4485626220703,-1,-1,0,-2,2,0,-2,2,1757009617492709159
0,2.640341997,20250904141337500,None,12,233.4485626220703,0,0,-2,-2,-1,-4,0,-1,1757009617500045299
0,2.640621662,20250904141337500,None,12,233.4485626220703,-3,2,-1,0,1,0,2,2,1757009617500178337
0,2.655055285,20250904141337515,None,12,232.73464965820312,1,-1,2,-2,0,-1,-3,-6,1757009617515042543
0,2.655189753,20250904141337515,None,12,232.73464965820312,3,1,-1,0,-3,0,-1,0,1757009617515196561
0,2.662576676,20250904141337522,None,12,231.06886291503906,-6,1,-1,-2,-4,1,-2,2,1757009617522576093
0,2.6626822949999998,20250904141337522,None,12,231.06886291503906,-3,-3,-2,1,3,0,1,0,1757009617522736310
0,2.6700189119999997,20250904141337530,None,12,232.97262573242188,1,1,0,1,-1,-2,-1,0,1757009617530029058
0,2.670321703,20250904141337530,None,12,232.97262573242188,2,3,0,1,-1,-6,-4,1,1757009617530183792
0,2.685164213,20250904141337545,None,12,233.92449951171875,-1,-3,1,-2,0,-2,-1,-2,1757009617545060157
0,2.685377121,20250904141337545,None,12,233.92449951171875,-4,-1,-4,0,0,2,3,-2,1757009617545276641
0,2.692541123,20250904141337552,None,12,234.40045166015625,1,0,1,2,-5,1,-2,1,1757009617552525281
0,2.692677975,20250904141337552,None,12,234.40045166015625,-1,4,1,0,1,-2,-2,-1,1757009617552652359
0,2.700074196,20250904141337560,None,12,232.020751953125,-1,-2,-3,-1,2,2,2,1,1757009617560055732
0,2.700223684,20250904141337560,None,12,232.020751953125,-2,-2,0,-3,-1,-2,-1,-5,1757009617560173749
0,2.715056658,20250904141337575,None,12,231.3068389892578,-1,0,1,0,-1,2,2,4,1757009617574994325
0,2.715448857,20250904141337575,None,12,231.3068389892578,-5,-1,1,1,0,-3,-8,-6,1757009617575403928
0,2.722608805,20250904141337582,None,12,231.78277587890625,-1,-1,-3,-3,-2,0,-2,0,1757009617582580566
0,2.722798586,20250904141337583,None,12,231.78277587890625,-1,0,-4,-1,-4,-2,0,-1,1757009617582736015
0,2.730094195,20250904141337590,None,12,230.59292602539062,1,1,5,-5,-2,-1,0,1,1757009617590037107
0,2.730264187,20250904141337590,None,12,230.59292602539062,-3,2,2,-1,-2,-1,-3,-4,1757009617590200424
0,2.745069981,20250904141337605,None,12,230.59292602539062,-4,0,-1,0,5,1,-2,-1,1757009617605033159
0,2.745204926,20250904141337605,None,12,230.59292602539062,0,-2,-1,1,-1,-2,-1,-1,1757009617605157852
0,2.760593653,20250904141337620,None,12,232.73464965820312,2,-6,1,0,0,-1,-2,-2,1757009617620614290
0,2.760731459,20250904141337620,None,12,232.73464965820312,-3,0,-1,-1,-4,-4,0,-2,1757009617620717048
0,2.761309147,20250904141337621,None,12,232.73464965820312,1,-1,1,-2,0,0,-3,0,1757009617621428966
0,2.7613999849999997,20250904141337621,None,12,232.73464965820312,0,-2,0,0,1,-1,1,0,1757009617621530294
0,2.775321722,20250904141337635,None,12,232.2587127685547,-6,-1,-2,1,-4,1,1,1,1757009617634996175
0,2.77552104,20250904141337635,None,12,232.2587127685547,-2,-1,-6,-1,1,0,-2,-2,1757009617635114908
0,2.782928467,20250904141337643,None,12,230.83090209960938,3,2,4,0,-1,-1,-2,2,1757009617642524003
0,2.783176899,20250904141337643,None,12,230.83090209960938,-1,2,2,-3,-1,0,-1,2,1757009617642642021
0,2.790421009,20250904141337650,None,12,232.020751953125,0,-4,-6,-2,-3,-9,0,-1,1757009617650027513
0,2.790621519,20250904141337650,None,12,232.020751953125,2,-2,-5,-2,1,-5,2,1,1757009617650139331
0,2.805491448,20250904141337665,None,12,232.020751953125,1,-2,0,-3,1,-1,-4,0,1757009617665036916
0,2.805770397,20250904141337666,None,12,232.020751953125,-1,-2,1,-1,-2,1,-4,1,1757009617665160179
0,2.8127307889999997,20250904141337673,None,12,231.5447998046875,1,-1,-3,-3,-3,0,1,3,1757009617672454833
0,2.812926531,20250904141337673,None,12,231.5447998046875,-6,-1,-1,0,1,-2,0,-3,1757009617672557592
0,2.820369721,20250904141337680,None,12,231.5447998046875,-1,3,-1,1,1,2,4,1,1757009617679978609
0,2.82058692,20250904141337680,None,12,231.5447998046875,2,0,1,-3,-5,1,-8,0,1757009617680081605
0,2.835451842,20250904141337695,None,12,230.59292602539062,-1,-3,2,0,0,0,0,0,1757009617695026397
0,2.835672617,20250904141337695,None,12,230.59292602539062,-4,1,-4,0,-2,-2,1,-3,1757009617695130348
0,2.84291482,20250904141337703,None,12,232.73464965820312,0,0,-4,-2,-2,-1,-1,-1,1757009617702528476
0,2.843314648,20250904141337703,None,12,232.73464965820312,-4,0,-3,-1,-2,-1,1,-3,1757009617702630996
0,2.850452662,20250904141337710,None,12,230.35494995117188,0,2,1,0,0,2,0,-1,1757009617710029125
0,2.8506751059999997,20250904141337710,None,12,230.35494995117188,0,-4,-4,-4,0,-3,-3,2,1757009617710131883
0,2.86540556,20250904141337725,None,12,230.59292602539062,0,-2,1,-3,-1,-4,0,1,1757009617724973917
0,2.865651608,20250904141337725,None,12,230.59292602539062,-9,-3,6,-1,-3,-1,-3,1,1757009617725085735
0,2.872422457,20250904141337732,None,12,232.49668884277344,5,5,-2,1,2,-2,0,-1,1757009617732518911
0,2.872516871,20250904141337732,None,12,232.49668884277344,2,-1,0,1,2,1,0,-3,1757009617732644081
0,2.880004883,20250904141337740,None,12,232.49668884277344,-1,-4,-1,-2,-1,1,0,0,1757009617740037918
0,2.880101681,20250904141337740,None,12,232.49668884277344,1,-2,-2,-1,-4,-5,1,-2,1757009617740179300
0,2.89504385,20250904141337755,None,12,231.3068389892578,-4,1,-1,-1,3,6,3,3,1757009617755073308
0,2.8951432710000002,20250904141337755,None,12,231.3068389892578,-3,1,-1,-4,-4,-9,-3,-6,1757009617755223751
0,2.902520895,20250904141337762,None,12,231.06886291503906,-2,1,-1,-1,-2,-8,-6,0,1757009617762553453
0,2.902611733,20250904141337762,None,12,231.06886291503906,0,-2,2,-1,-1,1,0,0,1757009617762696981
0,2.909918308,20250904141337770,None,12,230.59292602539062,-2,-2,-3,0,0,0,0,-4,1757009617769996881
0,2.910009146,20250904141337770,None,12,230.59292602539062,-1,1,-2,1,-3,-2,-1,-2,1757009617770132303
0,2.925085306,20250904141337785,None,12,232.2587127685547,-2,-1,1,-2,-2,-2,0,3,1757009617785084724
0,2.925181151,20250904141337785,None,12,232.2587127685547,-1,1,0,-2,-6,-4,-1,1,1757009617785277843
0,2.9324922559999997,20250904141337792,None,12,229.64105224609375,2,1,-1,-2,0,-3,-4,0,1757009617792533397
0,2.932570458,20250904141337792,None,12,229.64105224609375,0,-1,-2,1,-1,1,-1,-2,1757009617792663574
0,2.939970255,20250904141337800,None,12,232.49668884277344,-1,-6,-4,-1,-1,-1,1,0,1757009617800015449
0,2.940579176,20250904141337800,None,12,232.49668884277344,-3,1,4,-1,0,-2,0,2,1757009617800148963
0,2.955406189,20250904141337815,None,12,232.73464965820312,1,0,-1,0,2,-3,-4,-1,1757009617815116643
0,2.955622435,20250904141337815,None,12,232.73464965820312,1,-3,0,0,-1,-3,-1,-3,1757009617815259456
0,2.962677717,20250904141337822,None,12,232.73464965820312,-3,1,-4,-1,1,1,2,3,1757009617822523832
0,2.962819815,20250904141337823,None,12,232.73464965820312,-4,0,-5,-3,-4,0,-1,-2,1757009617822642087
0,2.970214844,20250904141337830,None,12,231.3068389892578,0,-5,-2,-3,1,-3,-4,-3,1757009617830046176
0,2.970319987,20250904141337830,None,12,231.3068389892578,0,-5,-3,-3,-2,1,5,2,1757009617830157995
0,2.984999657,20250904141337845,None,12,232.49668884277344,0,4,0,1,4,-1,0,-5,1757009617845039606
0,2.985084057,20250904141337845,None,12,232.49668884277344,2,2,0,-3,-1,-1,-2,3,1757009617845192670
0,2.992421866,20250904141337852,None,12,231.3068389892578,-5,-3,1,-3,1,0,1,1,1757009617852498531
0,2.992498875,20250904141337852,None,12,231.3068389892578,-2,0,-1,2,-2,0,3,-3,1757009617852608442
0,2.999886513,20250904141337860,None,12,231.3068389892578,-1,-1,-2,-2,-4,-1,-3,-2,1757009617859987974
0,3.000017405,20250904141337860,None,12,231.3068389892578,4,4,0,0,-2,0,0,1,1757009617860096931
0,3.015103102,20250904141337875,None,12,230.83090209960938,-6,-2,-4,1,0,6,0,-11,1757009617875136852
0,3.015218496,20250904141337875,None,12,230.83090209960938,-4,-3,2,2,0,-6,-2,1,1757009617875257968
0,3.022596836,20250904141337882,None,12,232.73464965820312,-3,-3,4,2,2,-4,-1,3,1757009617882691383
0,3.022685766,20250904141337882,None,12,232.73464965820312,-1,-3,-3,-1,2,-3,-1,-1,1757009617882793664
0,3.029952049,20250904141337890,None,12,231.06886291503906,-2,0,0,-4,-5,-3,0,1,1757009617890028238
0,3.030043364,20250904141337890,None,12,231.06886291503906,0,1,0,-2,0,-3,-5,-1,1757009617890148401
0,3.04494524,20250904141337905,None,12,235.35232543945312,-2,-1,-2,-3,-2,-1,0,-5,1757009617905000209
0,3.045043469,20250904141337905,None,12,235.35232543945312,0,0,-2,-3,0,2,3,1,1757009617905120372
0,3.05247879,20250904141337912,None,12,233.4485626220703,1,-1,-1,-2,-3,-2,-4,1,1757009617912533521
0,3.05257678,20250904141337912,None,12,233.4485626220703,-1,-5,-2,-1,-2,2,-4,-1,1757009617912675142
0,3.060012818,20250904141337920,None,12,232.73464965820312,1,1,-2,-1,1,-1,-4,-1,1757009617920046329
0,3.060126305,20250904141337920,None,12,232.73464965820312,-4,0,-1,-5,-1,1,1,3,1757009617920183181
0,3.075139761,20250904141337935,None,12,231.5447998046875,1,0,-2,1,-3,-3,0,-1,1757009617935028314
0,3.075395823,20250904141337935,None,12,231.5447998046875,-3,-3,-4,-2,0,-2,1,0,1757009617935406446
0,3.082943201,20250904141337943,None,12,231.5447998046875,-2,-3,0,-2,0,0,-2,-1,1757009617942898273
0,3.083116532,20250904141337943,None,12,231.5447998046875,4,4,-1,2,2,-1,2,-3,1757009617943108797
0,3.090125323,20250904141337950,None,12,233.21060180664062,-3,1,-1,1,0,1,1,0,1757009617950057983
0,3.090315819,20250904141337950,None,12,233.21060180664062,-2,-6,1,-1,-2,-2,-2,-1,1757009617950215578
0,3.105005503,20250904141337965,None,12,233.21060180664062,0,-2,-3,3,1,1,0,-4,1757009617965038299
0,3.105106354,20250904141337965,None,12,233.21060180664062,-1,0,-2,-3,-2,-5,-3,-1,1757009617965196132
0,3.112470865,20250904141337972,None,12,231.06886291503906,0,-2,1,0,-2,0,3,4,1757009617972497463
0,3.112588644,20250904141337972,None,12,231.06886291503906,-4,1,2,0,-3,-1,0,1,1757009617972622394
0,3.119907141,20250904141337980,None,12,231.06886291503906,-1,1,-2,0,-1,1,-3,-3,1757009617979979515
0,3.120005131,20250904141337980,None,12,231.06886291503906,-1,-4,-3,2,0,-1,-1,0,1757009617980093240
0,3.134963036,20250904141337995,None,12,230.35494995117188,2,2,1,2,0,7,2,0,1757009617994982242
0,3.135087967,20250904141337995,None,12,230.35494995117188,0,-1,-2,-1,-2,-7,-1,0,1757009617995102882
0,3.142368078,20250904141338002,None,12,231.78277587890625,0,0,-2,-1,0,-3,2,-1,1757009618002441644
0,3.142467261,20250904141338002,None,12,231.78277587890625,0,0,2,1,0,0,-4,-1,1757009618002574920
0,3.15008235,20250904141338010,None,12,231.78277587890625,2,1,3,3,3,2,-1,-1,1757009618010042190
0,3.1502459050000002,20250904141338010,None,12,231.78277587890625,0,1,-1,2,1,0,5,-4,1757009618010222434
0,3.164913655,20250904141338025,None,12,234.63841247558594,-1,2,1,-3,-3,-4,-3,2,1757009618024931430
0,3.165042877,20250904141338025,None,12,234.63841247558594,1,-3,-1,2,1,-4,-1,0,1757009618025044441
0,3.172424793,20250904141338032,None,12,235.59030151367188,-1,-2,0,-6,0,0,-1,-1,1757009618032500267
0,3.172530413,20250904141338032,None,12,235.59030151367188,-4,-1,-1,0,0,-2,0,-1,1757009618032620191
0,3.180008412,20250904141338040,None,12,231.3068389892578,-3,-2,-1,2,3,-2,2,1,1757009618040000438
0,3.180130005,20250904141338040,None,12,231.3068389892578,-1,-1,-2,0,-1,-1,0,-4,1757009618040120124
0,3.195001126,20250904141338055,None,12,232.2587127685547,-2,-3,-1,3,-1,2,0,1,1757009618054977893
0,3.195142985,20250904141338055,None,12,232.2587127685547,0,1,2,1,-3,1,2,-4,1757009618055100917
0,3.202653885,20250904141338062,None,12,230.35494995117188,-1,10,3,0,-2,0,-2,1,1757009618062532663
0,3.202768088,20250904141338063,None,12,230.35494995117188,-4,-4,-4,-1,-1,0,-4,-1,1757009618062664985
0,3.210008383,20250904141338070,None,12,233.21060180664062,-2,-2,-1,-1,-3,-3,1,-2,1757009618069994926
0,3.210220099,20250904141338070,None,12,233.21060180664062,0,2,-2,-1,-2,1,-1,4,1757009618070107460
0,3.225343943,20250904141338085,None,12,232.49668884277344,-2,-3,0,0,1,-2,-1,1,1757009618084986209
0,3.2255845069999998,20250904141338085,None,12,232.49668884277344,1,-2,0,1,-1,-3,-2,0,1757009618085114002
0,3.2327880860000002,20250904141338093,None,12,232.49668884277344,0,-1,1,0,-2,-1,-2,0,1757009618092517375
0,3.233161211,20250904141338093,None,12,232.49668884277344,0,-2,-3,-3,-2,-2,-2,-2,1757009618092630863
0,3.2402210240000002,20250904141338100,None,12,231.3068389892578,-3,0,0,3,-1,0,-4,-2,1757009618099972724
0,3.240389109,20250904141338100,None,12,231.3068389892578,-3,2,0,-6,-3,0,0,2,1757009618100081443
0,3.254952908,20250904141338115,None,12,232.73464965820312,0,-3,-1,2,1,7,-4,-1,1757009618114957571
0,3.255096674,20250904141338115,None,12,232.73464965820312,0,-3,-2,2,-1,-6,0,1,1757009618115087032
0,3.262503147,20250904141338122,None,12,231.3068389892578,-3,0,5,0,4,-1,0,1,1757009618122502088
0,3.262640953,20250904141338122,None,12,231.3068389892578,-2,0,-2,0,-6,0,2,-3,1757009618122625589
0,3.269989491,20250904141338130,None,12,232.73464965820312,-1,2,1,0,1,-2,-1,-1,1757009618130034923
0,3.270097733,20250904141338130,None,12,232.73464965820312,1,-1,-1,0,-1,2,-1,-2,1757009618130156517
0,3.284938336,20250904141338145,None,12,229.64105224609375,1,-5,-2,-1,-2,0,0,-1,1757009618144957780
0,3.285081148,20250904141338145,None,12,229.64105224609375,3,3,6,0,0,-1,3,0,1757009618145071268
0,3.292551994,20250904141338152,None,12,232.49668884277344,0,1,1,1,1,-1,-3,-4,1757009618152522087
0,3.292698145,20250904141338152,None,12,232.49668884277344,-1,-4,-2,-1,1,0,2,-2,1757009618152652740
0,3.300061941,20250904141338160,None,12,231.06886291503906,0,-2,-4,-5,-4,-3,-3,-1,1757009618160061836
0,3.300168038,20250904141338160,None,12,231.06886291503906,0,-3,1,4,4,3,-1,4,1757009618160207271
0,3.31527257,20250904141338175,None,12,232.2587127685547,-4,-3,-1,1,-3,-5,0,-4,1757009618175007581
0,3.315374613,20250904141338175,None,12,232.2587127685547,0,3,0,-3,-4,-2,-2,-2,1757009618175149202
0,3.322515965,20250904141338182,None,12,232.2587127685547,-1,3,1,0,1,-3,-2,-2,1757009618182543516
0,3.322652102,20250904141338182,None,12,232.2587127685547,0,1,1,-1,-1,1,-1,-2,1757009618182681083
0,3.33008337,20250904141338190,None,12,231.5447998046875,-1,1,-2,1,2,0,2,2,1757009618190043449
0,3.3302438260000002,20250904141338190,None,12,231.5447998046875,0,-2,0,-3,-2,-2,-5,-1,1757009618190162658
0,3.345077276,20250904141338205,None,12,231.3068389892578,1,-4,-2,-2,-1,0,4,-1,1757009618205028533
0,3.345226526,20250904141338205,None,12,231.3068389892578,-1,-1,1,3,0,-2,-2,-1,1757009618205179929
0,3.352579355,20250904141338212,None,12,233.4485626220703,-1,-1,0,-1,-1,3,4,-5,1757009618212578296
0,3.35268569,20250904141338212,None,12,233.4485626220703,0,0,-2,-1,-2,-5,-1,-1,1757009618212749242
0,3.360132456,20250904141338220,None,12,233.4485626220703,-1,-2,-3,-1,-3,-4,4,0,1757009618220025777
0,3.360301733,20250904141338220,None,12,233.4485626220703,-1,0,-5,1,-2,0,1,2,1757009618220159530
0,3.374936819,20250904141338235,None,12,232.97262573242188,-2,-2,-1,-3,-2,-1,-4,-3,1757009618234933853
0,3.375070334,20250904141338235,None,12,232.97262573242188,2,4,0,-2,2,-1,0,-2,1757009618235048532
0,3.382470608,20250904141338242,None,12,231.5447998046875,0,-3,-2,3,4,2,1,-1,1757009618242519855
0,3.382589817,20250904141338242,None,12,231.5447998046875,-4,-1,0,-4,-7,-5,-4,-5,1757009618242635965
0,3.390063524,20250904141338250,None,12,232.2587127685547,5,1,-5,3,-3,0,1,3,1757009618250014305
0,3.390276194,20250904141338250,None,12,232.2587127685547,3,1,1,-1,-4,0,0,-1,1757009618250125885
0,3.405042172,20250904141338265,None,12,232.020751953125,-1,0,0,0,-1,1,0,1,1757009618265034198
0,3.405214548,20250904141338265,None,12,232.020751953125,-2,0,0,3,1,2,1,1,1757009618265167713
0,3.412575245,20250904141338272,None,12,231.78277587890625,2,-4,-5,-2,-2,-1,-1,0,1757009618272564888
0,3.412671328,20250904141338272,None,12,231.78277587890625,0,-3,0,0,0,-1,0,-1,1757009618272727727
0,3.419906855,20250904141338280,None,12,232.49668884277344,3,5,1,-2,-2,-2,-5,-1,1757009618279985666
0,3.420074701,20250904141338280,None,12,232.49668884277344,-1,-2,-1,-3,-2,-1,-2,4,1757009618280174255
0,3.4350979329999998,20250904141338295,None,12,229.87901306152344,-2,-3,-3,-2,1,-1,2,-1,1757009618295044422
0,3.435272932,20250904141338295,None,12,229.87901306152344,-1,-1,-2,0,-1,-3,-2,1,1757009618295200586
0,3.442704439,20250904141338302,None,12,232.020751953125,-6,-5,-3,0,4,-1,-1,-3,1757009618302669048
0,3.442855597,20250904141338303,None,12,232.020751953125,-2,-4,-3,-3,5,-1,-1,2,1757009618302819490
0,3.450095415,20250904141338310,None,12,230.35494995117188,0,1,-2,0,-5,-2,-3,-3,1757009618310069799
0,3.450223684,20250904141338310,None,12,230.35494995117188,0,6,2,0,1,-1,-3,0,1757009618310202836
0,3.465066433,20250904141338325,None,12,230.35494995117188,-3,-3,1,0,2,1,-3,-1,1757009618325029373
0,3.465224266,20250904141338325,None,12,230.35494995117188,-3,-2,-1,-6,-2,-9,1,0,1757009618325164794
0,3.47246337,20250904141338332,None,12,232.2587127685547,-1,1,-4,5,-3,-2,-2,-3,1757009618332495689
0,3.472617626,20250904141338332,None,12,232.2587127685547,-4,-1,-2,-2,-2,0,-1,-1,1757009618332612514
0,3.479974985,20250904141338340,None,12,232.2587127685547,1,1,-1,1,0,2,2,0,1757009618340013980
0,3.480097056,20250904141338340,None,12,232.2587127685547,-2,-3,-4,-2,1,1,-1,2,1757009618340140104
0,3.49496603,20250904141338355,None,12,232.73464965820312,-2,-3,-3,0,-1,-4,-3,-4,1757009618354964256
0,3.495112181,20250904141338355,None,12,232.73464965820312,-4,2,3,0,1,-1,1,-1,1757009618355090141
0,3.502518177,20250904141338362,None,12,233.21060180664062,0,0,0,0,-2,-3,3,1,1757009618362540006
0,3.502643585,20250904141338362,None,12,233.21060180664062,-1,2,-2,1,-2,-1,-2,0,1757009618362662076
0,3.509971619,20250904141338370,None,12,231.5447998046875,-1,-5,-6,-3,2,1,-4,-2,1757009618370029449
0,3.510089398,20250904141338370,None,12,231.5447998046875,0,0,-3,-1,-2,1,3,-1,1757009618370154380
0,3.525374174,20250904141338385,None,12,233.21060180664062,-1,-1,1,-1,-1,-4,1,-2,1757009618385475158
0,3.525456429,20250904141338385,None,12,233.21060180664062,-2,-2,0,4,4,0,1,1,1757009618385600805
0,3.532588005,20250904141338392,None,12,230.1169891357422,3,5,-3,-5,-4,-3,1,-1,1757009618392650127
0,3.532679796,20250904141338392,None,12,230.1169891357422,-1,-2,2,-2,-3,0,-4,-1,1757009618392777681
0,3.5399668220000002,20250904141338400,None,12,232.49668884277344,-3,-4,-4,-3,0,-1,-2,0,1757009618400036334
0,3.540074825,20250904141338400,None,12,232.49668884277344,0,-1,0,-2,-3,-1,0,4,1757009618400169372
0,3.5550236699999997,20250904141338415,None,12,230.1169891357422,-4,-3,-2,5,-1,-2,2,-5,1757009618415009737
0,3.555143118,20250904141338415,None,12,230.1169891357422,-2,-2,3,1,1,0,6,-1,1757009618415151596
0,3.5625755789999998,20250904141338422,None,12,232.2587127685547,-2,1,1,0,-3,-6,-11,0,1757009618422609329
0,3.562685013,20250904141338422,None,12,232.2587127685547,0,-1,-3,2,-2,2,0,-3,1757009618422766685
0,3.577527046,20250904141338437,None,12,232.2587127685547,1,-1,-2,-2,0,3,-1,1,1757009618437563657
0,3.577705145,20250904141338437,None,12,232.2587127685547,0,-2,-4,-2,0,2,-1,-1,1757009618437684059
0,3.584918499,20250904141338445,None,12,232.49668884277344,0,-1,3,0,-2,-5,-4,3,1757009618444974184
0,3.585091353,20250904141338445,None,12,232.49668884277344,-3,-2,1,-3,-1,-4,-1,-2,1757009618445076942
0,3.592427969,20250904141338452,None,12,232.49668884277344,1,-1,1,0,-3,3,-2,1,1757009618452490091
0,3.592587233,20250904141338452,None,12,232.49668884277344,0,0,-1,0,0,2,1,-3,1757009618452594280
0,3.607523918,20250904141338467,None,12,233.21060180664062,-3,-2,3,-1,-1,3,1,1,1757009618467519998
0,3.607650042,20250904141338467,None,12,233.21060180664062,1,-5,-4,3,2,-4,-1,-3,1757009618467649936
0,3.614929199,20250904141338475,None,12,231.06886291503906,3,-2,-2,5,0,3,0,0,1757009618474979639
0,3.615096808,20250904141338475,None,12,231.06886291503906,-1,-2,2,-1,-5,-5,0,-1,1757009618475090980
0,3.622581721,20250904141338482,None,12,232.97262573242188,0,3,3,0,-1,1,0,0,1757009618482475996
0,3.622757435,20250904141338483,None,12,232.97262573242188,2,-1,-5,0,1,-3,-1,0,1757009618482673645
0,3.637589455,20250904141338497,None,12,230.83090209960938,-4,0,2,3,0,-2,-2,-3,1757009618497579574
0,3.637709618,20250904141338497,None,12,230.83090209960938,-2,-2,-2,-3,-2,-1,-2,-1,1757009618497734546
0,3.6448941230000003,20250904141338505,None,12,232.97262573242188,3,2,0,-1,0,-3,-2,3,1757009618505005121
0,3.645017862,20250904141338505,None,12,232.97262573242188,-1,-4,0,-2,-2,-1,1,-1,1757009618505112648
0,3.652556181,20250904141338512,None,12,231.5447998046875,-2,-1,-1,2,-2,-3,1,-3,1757009618512569189
0,3.652653217,20250904141338512,None,12,231.5447998046875,0,-2,-2,-1,1,-2,1,-4,1757009618512734174
0,3.667484522,20250904141338527,None,12,232.97262573242188,0,-3,-1,0,-1,2,4,-3,1757009618527498722
0,3.667589426,20250904141338527,None,12,232.97262573242188,0,-1,0,-1,-1,-2,-9,-2,1757009618527666807
0,3.67492652,20250904141338535,None,12,232.97262573242188,2,2,4,2,0,1,2,3,1757009618535003185
0,3.675018788,20250904141338535,None,12,232.97262573242188,-4,1,0,-2,1,-2,-1,-1,1757009618535138845
0,3.682338476,20250904141338542,None,12,232.020751953125,1,0,-1,-3,-2,-2,1,0,1757009618542444705
0,3.6824181080000002,20250904141338542,None,12,232.020751953125,-3,-2,-2,0,0,-3,-2,-3,1757009618542564153
0,3.697466612,20250904141338557,None,12,229.87901306152344,-1,2,2,2,-2,-1,3,0,1757009618557493686
0,3.6975677019999997,20250904141338557,None,12,229.87901306152344,-2,-1,-4,-3,-3,0,2,3,1757009618557625770
0,3.705047369,20250904141338565,None,12,232.73464965820312,1,-2,0,-2,-4,0,-5,-6,1757009618565022706
0,3.705163002,20250904141338565,None,12,232.73464965820312,-2,-5,-1,-1,-3,-8,-4,-2,1757009618565186023
0,3.7125635150000003,20250904141338572,None,12,230.83090209960938,-2,2,1,3,-3,-3,3,0,1757009618572578191
0,3.712683678,20250904141338572,None,12,230.83090209960938,-1,-4,0,0,1,-2,-1,-3,1757009618572731733
0,3.7275404930000002,20250904141338587,None,12,232.020751953125,0,-1,-5,1,-1,0,3,-1,1757009618587551116
0,3.727656603,20250904141338587,None,12,232.020751953125,0,0,6,0,-1,0,-1,1,1757009618587698459
0,3.734910727,20250904141338595,None,12,230.83090209960938,-2,4,2,0,-2,1,-3,0,1757009618594961643
0,3.735018969,20250904141338595,None,12,230.83090209960938,-4,0,-3,-3,-2,-2,2,-3,1757009618595087051
0,3.74249959,20250904141338602,None,12,232.020751953125,-1,-4,-1,-1,-3,-1,-1,1,1757009618602512359
0,3.742623568,20250904141338602,None,12,232.020751953125,2,-1,-4,-1,1,0,-2,1,1757009618602654695
0,3.757454395,20250904141338617,None,12,231.06886291503906,-3,2,0,1,-1,-4,-2,-8,1757009618617510795
0,3.757581949,20250904141338617,None,12,231.06886291503906,-3,-3,-2,-1,-1,-5,0,-1,1757009618617650747
0,3.76496315,20250904141338625,None,12,231.06886291503906,-1,-4,-4,-1,2,3,1,0,1757009618625021457
0,3.765057326,20250904141338625,None,12,231.06886291503906,1,2,3,0,0,3,0,0,1757009618625174045
0,3.772583485,20250904141338632,None,12,232.49668884277344,2,-1,-3,2,2,-1,-1,0,1757009618632616281
0,3.772702933,20250904141338632,None,12,232.49668884277344,0,-4,-2,-4,-1,0,-2,-3,1757009618632747173
0,3.78748703,20250904141338647,None,12,235.11434936523438,-2,-4,-2,-2,0,0,6,3,1757009618647515058
0,3.787602663,20250904141338647,None,12,235.11434936523438,1,0,0,-2,0,1,0,1,1757009618647638082
0,3.794917345,20250904141338655,None,12,231.5447998046875,1,-4,-4,-5,-2,-1,-4,-5,1757009618654968261
0,3.795059681,20250904141338655,None,12,231.5447998046875,-4,-4,-1,-1,0,-1,-4,-3,1757009618655093908
0,3.802442789,20250904141338662,None,12,231.5447998046875,-2,-1,-1,0,-2,-3,0,1,1757009618662485361
0,3.8026082519999997,20250904141338662,None,12,231.5447998046875,1,0,-1,0,0,1,1,-4,1757009618662593364
0,3.817545653,20250904141338677,None,12,230.83090209960938,3,1,-1,0,-1,0,-3,0,1757009618677548885
0,3.817666531,20250904141338677,None,12,230.83090209960938,-2,0,1,-1,1,-1,-3,-1,1757009618677704811
0,3.82525897,20250904141338685,None,12,232.020751953125,1,-2,-3,0,-4,1,1,1,1757009618685007810
0,3.82559371,20250904141338685,None,12,232.020751953125,0,3,3,-4,-3,1,1,-1,1757009618685143232
0,3.832542658,20250904141338692,None,12,231.78277587890625,-2,-6,-3,-2,1,1,1,-1,1757009618692520141
0,3.83267808,20250904141338692,None,12,231.78277587890625,-1,0,-3,-3,0,-3,-4,-2,1757009618692671060
0,3.847588301,20250904141338707,None,12,230.83090209960938,1,-1,1,-1,-2,-1,-1,1,1757009618707541942
0,3.847809792,20250904141338708,None,12,230.83090209960938,0,-1,0,2,3,-1,0,-1,1757009618707684278
0,3.854877234,20250904141338715,None,12,232.49668884277344,1,0,0,-1,3,-1,-2,0,1757009618714970111
0,3.8549745079999997,20250904141338715,None,12,232.49668884277344,-1,1,-3,-1,0,-2,-4,-5,1757009618715081691
0,3.862481594,20250904141338722,None,12,231.3068389892578,-2,-3,-2,-1,-1,0,-1,0,1757009618722496032
0,3.862601996,20250904141338722,None,12,231.3068389892578,-1,2,0,0,0,1,0,-4,1757009618722620487
0,3.877571583,20250904141338737,None,12,232.97262573242188,-3,0,-1,-1,3,0,1,1,1757009618737536430
0,3.87775445,20250904141338738,None,12,232.73464965820312,1,-2,-3,1,0,-1,0,-1,1757009618737661123
0,3.8849539760000003,20250904141338745,None,12,232.73464965820312,-1,2,1,1,-4,-6,-3,-1,1757009618744990348
0,3.885112763,20250904141338745,None,12,232.73464965820312,2,-2,1,-3,0,-2,3,2,1757009618745064258
0,3.892528534,20250904141338752,None,12,233.21060180664062,-3,-5,1,0,-2,0,-4,-9,1757009618752533674
0,3.892693997,20250904141338752,None,12,233.21060180664062,3,3,-1,0,0,-2,0,1,1757009618752656698
0,3.907631397,20250904141338767,None,12,232.49668884277344,1,-1,-2,-2,-1,-1,-3,1,1757009618767574548
0,3.9077842240000003,20250904141338768,None,12,232.49668884277344,-4,-3,-2,0,-2,0,0,-5,1757009618767731666
0,3.9149317740000003,20250904141338775,None,12,231.3068389892578,0,-2,-2,2,-4,-3,5,3,1757009618774971485
0,3.915060044,20250904141338775,None,12,231.3068389892578,1,-3,-1,-1,-1,-4,-6,-1,1757009618775085926
0,3.922648192,20250904141338782,None,12,231.3068389892578,-3,-1,-3,0,-2,-1,-3,1,1757009618782627820
0,3.9227805140000003,20250904141338783,None,12,231.3068389892578,-2,-2,-6,1,-1,0,-1,-2,1757009618782796621
0,3.937563896,20250904141338797,None,12,232.73464965820312,-1,-1,1,1,1,0,0,0,1757009618797559261
0,3.93769598,20250904141338797,None,12,232.73464965820312,1,0,-1,-2,-5,3,-1,0,1757009618797721862
0,3.945103645,20250904141338805,None,12,232.97262573242188,-2,0,0,-1,-2,-2,0,-3,1757009618805054903
0,3.945240498,20250904141338805,None,12,232.97262573242188,2,-2,-1,2,2,-3,-1,2,1757009618805189609
0,3.95272708,20250904141338813,None,12,233.68653869628906,-5,-2,0,-1,-1,0,-3,-4,1757009618812536478
0,3.95287776,20250904141338813,None,12,233.68653869628906,-1,0,-3,0,-4,0,2,0,1757009618812662363
0,3.967643261,20250904141338827,None,12,231.5447998046875,0,1,0,1,-3,-1,-2,0,1757009618827600717
0,3.967941046,20250904141338828,None,12,231.5447998046875,0,-1,1,0,-2,2,-1,-1,1757009618827786207
0,3.974973917,20250904141338835,None,12,232.97262573242188,-3,-2,-1,-3,1,0,2,-4,1757009618834988832
0,3.975271225,20250904141338835,None,12,232.97262573242188,-2,-2,-2,2,-2,-6,-1,1,1757009618835109710
0,3.982703686,20250904141338842,None,12,229.87901306152344,-3,-2,2,-1,4,-3,-1,-1,1757009618842509031
0,3.982823849,20250904141338843,None,12,229.87901306152344,0,1,-4,-3,-5,-2,0,1,1757009618842631816
0,3.997753859,20250904141338858,None,12,232.020751953125,2,2,0,-4,-4,-4,-1,4,1757009618857528924
0,3.997893334,20250904141338858,None,12,232.020751953125,0,-1,-3,-3,-2,1,-2,-1,1757009618857655525
0,4.005228758,20250904141338865,None,12,234.1624755859375,-1,1,-2,-3,1,-1,1,-1,1757009618865004777
0,4.005327702,20250904141338865,None,12,234.1624755859375,-1,3,-5,-1,0,-1,0,-3,1757009618865119457
0,4.012522698,20250904141338872,None,12,232.97262573242188,1,-1,-2,-2,-1,-4,-1,1,1757009618872512340
0,4.01260376,20250904141338872,None,12,232.97262573242188,-3,-6,-4,1,-2,0,-2,-2,1757009618872632265
0,4.027510643,20250904141338887,None,12,230.83090209960938,-1,1,1,0,0,-1,4,0,1757009618887566804
0,4.027585745,20250904141338887,None,12,230.83090209960938,-1,4,0,4,1,-1,-8,-1,1757009618887712001
0,4.034896374,20250904141338895,None,12,230.83090209960938,1,0,2,-1,0,-1,1,2,1757009618894966840
0,4.034973145,20250904141338895,None,12,230.83090209960938,-2,-1,-3,-1,2,-3,2,-6,1757009618895082473
0,4.042446613,20250904141338902,None,12,232.97262573242188,3,-5,-3,-3,-5,-1,1,2,1757009618902527570
0,4.042520762,20250904141338902,None,12,232.97262573242188,-5,-4,-3,-3,-2,1,-1,-3,1757009618902655601
0,4.057632208,20250904141338917,None,12,233.21060180664062,-2,-2,-4,-2,0,1,-1,1,1757009618917690038
0,4.05789876,20250904141338918,None,12,233.21060180664062,-2,-1,6,-1,3,-1,-2,2,1757009618917865753
0,4.064918518,20250904141338925,None,12,230.59292602539062,3,-5,-5,-1,-2,2,-2,2,1757009618924994468
0,4.065001249,20250904141338925,None,12,230.59292602539062,-4,-1,-1,-1,1,-1,-3,1,1757009618925139427
0,4.072590113,20250904141338932,None,12,232.020751953125,-2,-1,0,-3,3,-4,-3,-1,1757009618932658195
0,4.072676897,20250904141338932,None,12,232.020751953125,3,3,1,0,1,-2,3,-3,1757009618932814121
0,4.087638617,20250904141338947,None,12,232.020751953125,-3,-2,0,-3,-6,-2,-1,1,1757009618947552204
0,4.087811947,20250904141338948,None,12,232.020751953125,2,-1,-5,-1,2,-3,-4,-4,1757009618947745323
0,4.094964504,20250904141338955,None,12,232.2587127685547,0,-3,-1,-3,0,-3,0,0,1757009618954985618
0,4.095152855,20250904141338955,None,12,232.2587127685547,-3,0,-1,0,-1,1,-1,-5,1757009618955100059
0,4.102623463,20250904141338962,None,12,231.5447998046875,-1,3,-1,0,1,5,-3,0,1757009618962640047
0,4.102762461,20250904141338963,None,12,231.5447998046875,-4,-3,-4,-3,-2,-7,-3,3,1757009618962840318
0,4.117549658,20250904141338977,None,12,232.020751953125,-2,-1,0,-1,0,-3,-1,-3,1757009618977562665
0,4.117676735,20250904141338977,None,12,232.020751953125,1,-1,-1,0,-1,-2,-1,-4,1757009618977698326
0,4.124965668,20250904141338985,None,12,232.2587127685547,-1,-2,-4,-2,-1,-1,-3,3,1757009618985007047
0,4.125143051,20250904141338985,None,12,232.2587127685547,-3,-4,0,-1,-3,-1,-4,0,1757009618985139369
0,4.132604599,20250904141338992,None,12,230.35494995117188,2,4,1,3,0,-2,-4,-3,1757009618992567300
0,4.132760525,20250904141338993,None,12,230.35494995117188,-1,-4,-1,-1,0,1,-3,-1,1757009618992707252
0,4.147547007,20250904141339007,None,12,231.06886291503906,1,-2,2,0,1,-3,0,0,1757009619007522106
0,4.147678137,20250904141339007,None,12,231.06886291503906,2,3,2,2,0,-1,0,0,1757009619007658958
0,4.154883146,20250904141339015,None,12,233.21060180664062,0,-3,-1,0,-1,2,2,2,1757009619014954090
0,4.154997349,20250904141339015,None,12,233.21060180664062,-1,-1,1,0,1,0,-1,0,1757009619015054941
0,4.162702799,20250904141339022,None,12,233.21060180664062,-4,-2,-4,2,-1,1,-1,-3,1757009619022473573
0,4.162906885,20250904141339023,None,12,231.78277587890625,0,-2,-1,0,1,-1,0,-1,1757009619022597074
0,4.177616358,20250904141339037,None,12,231.5447998046875,1,-3,1,2,-2,-2,0,0,1757009619037568092
0,4.177764654,20250904141339038,None,12,231.5447998046875,1,-3,-1,-1,-1,1,1,2,1757009619037751197
0,4.185051203,20250904141339045,None,12,232.49668884277344,-4,1,-2,0,2,0,0,-3,1757009619045035123
0,4.185205221,20250904141339045,None,12,232.49668884277344,-4,-4,1,-6,-6,-6,-6,-4,1757009619045170783
0,4.192516327,20250904141339052,None,12,231.06886291503906,-1,-1,-2,4,0,1,-1,0,1757009619052508831
0,4.192637682,20250904141339052,None,12,231.06886291503906,-1,-1,3,1,0,0,1,1,1757009619052639961
0,4.20748663,20250904141339067,None,12,233.21060180664062,-2,-4,-1,2,-2,-2,1,-1,1757009619067523241
0,4.207573414,20250904141339067,None,12,233.21060180664062,0,0,0,1,1,0,-2,4,1757009619067655563
0,4.214896918,20250904141339075,None,12,229.64105224609375,0,-6,-2,1,-1,-1,0,-4,1757009619074944496
0,4.215016604,20250904141339075,None,12,229.64105224609375,-2,0,-1,1,2,1,-2,2,1757009619075049161
0,4.222504378,20250904141339082,None,12,232.2587127685547,-1,0,-2,-1,-1,1,-2,1,1757009619082539558
0,4.222629547,20250904141339082,None,12,232.2587127685547,-3,-1,3,-2,0,-1,-2,-1,1757009619082675695
0,4.237504006,20250904141339097,None,12,232.49668884277344,1,-1,-3,-3,-3,2,0,2,1757009619097517728
0,4.237620592,20250904141339097,None,12,232.49668884277344,-1,0,-1,-3,1,2,2,0,1757009619097651243
0,4.245053291,20250904141339105,None,12,232.49668884277344,-3,-1,-3,-2,-3,-3,-4,2,1757009619105070829
0,4.245162726,20250904141339105,None,12,232.49668884277344,-3,1,-4,-1,-2,-4,-4,-6,1757009619105251073
0,4.252428293,20250904141339112,None,12,231.5447998046875,1,-4,-2,-3,-3,-2,0,2,1757009619112489938
0,4.252518416,20250904141339112,None,12,231.5447998046875,1,-1,0,-2,1,3,3,-1,1757009619112596035
0,4.267525673,20250904141339127,None,12,232.2587127685547,-4,-5,0,-3,0,-1,-3,-2,1757009619127514600
0,4.267657042,20250904141339127,None,12,232.2587127685547,-3,-4,-3,-1,1,2,3,-4,1757009619127647638
0,4.275499582,20250904141339135,None,12,231.5447998046875,1,3,-2,0,-2,0,2,0,1757009619134986162
0,4.275724411,20250904141339135,None,12,231.5447998046875,1,0,2,-1,-1,-3,-5,3,1757009619135113954
0,4.282784939,20250904141339143,None,12,231.5447998046875,0,-1,0,-5,3,-1,5,0,1757009619142449617
0,4.283073902,20250904141339143,None,12,231.5447998046875,-5,-3,-2,-5,0,-2,-3,-4,1757009619142543554
0,4.297863007,20250904141339158,None,12,231.3068389892578,0,1,-3,-4,-1,0,-1,2,1757009619157565355
0,4.298104525,20250904141339158,None,12,231.3068389892578,-3,2,-1,-1,1,1,0,-5,1757009619157702922
0,4.3054142,20250904141339165,None,12,233.68653869628906,-1,1,0,-1,-2,2,1,0,1757009619164990901
0,4.30562973,20250904141339165,None,12,233.68653869628906,0,0,0,-2,-1,1,-1,-2,1757009619165098428
0,4.312838316,20250904141339173,None,12,232.020751953125,-3,-1,3,-3,0,-1,2,6,1757009619172480344
0,4.313064575,20250904141339173,None,12,232.020751953125,0,-1,1,1,0,-2,-3,-5,1757009619172577857
0,4.327732325,20250904141339188,None,12,232.73464965820312,1,2,2,0,0,-2,-2,2,1757009619187489271
0,4.32794261,20250904141339188,None,12,232.73464965820312,1,-2,-1,0,0,-2,-3,1,1757009619187597274
0,4.335371018,20250904141339195,None,12,231.3068389892578,-1,-5,-4,0,-2,1,2,-1,1757009619194946289
0,4.335566998,20250904141339195,None,12,231.3068389892578,-2,4,4,2,-4,-2,-1,2,1757009619195045471
0,4.342887163,20250904141339203,None,12,232.49668884277344,1,-1,-2,-3,2,2,-2,2,1757009619202510595
0,4.343174935,20250904141339203,None,12,232.49668884277344,0,-5,-1,-2,4,-1,-2,-1,1757009619202628850
0,4.357822418,20250904141339218,None,12,231.78277587890625,-1,-3,-1,-3,-3,-3,-4,-3,1757009619217490673
0,4.358020306,20250904141339218,None,12,231.78277587890625,-1,-3,1,-2,-4,-1,0,2,1757009619217612028
0,4.365353823,20250904141339225,None,12,231.78277587890625,-3,1,-2,-2,-1,-1,0,-3,1757009619224982738
0,4.365628243,20250904141339225,None,12,231.78277587890625,-2,-2,1,-1,0,-4,-4,-1,1757009619225078821
0,4.372703791,20250904141339232,None,12,233.21060180664062,-2,-3,-1,-3,2,0,-5,0,1757009619232511997
0,4.372888088,20250904141339233,None,12,233.21060180664062,0,0,-1,1,-1,-1,-1,-2,1757009619232620716
0,4.387736321,20250904141339248,None,12,233.21060180664062,-3,-3,0,-2,0,0,4,4,1757009619247457981
0,4.387953997,20250904141339248,None,12,233.21060180664062,-2,0,-2,-1,1,-1,-3,-7,1757009619247575759
0,4.39542985,20250904141339255,None,12,230.83090209960938,1,1,1,-4,0,-1,0,-1,1757009619254973888
0,4.395627022,20250904141339255,None,12,230.83090209960938,-2,-4,0,0,-2,-1,0,-1,1757009619255100011
0,4.402764559,20250904141339263,None,12,230.83090209960938,1,0,-5,-3,0,-2,-2,-3,1757009619262562036
0,4.402914763,20250904141339263,None,12,230.83090209960938,0,-3,-2,0,0,-1,-3,1,1757009619262731313
0,4.418129683,20250904141339278,None,12,231.06886291503906,-4,-3,-5,-2,-1,3,2,-3,1757009619277549505
0,4.418345928,20250904141339278,None,12,231.06886291503906,-1,-1,-4,-1,-3,-2,2,0,1757009619277764320
0,4.425494909,20250904141339285,None,12,231.3068389892578,1,2,0,1,0,-1,-2,-1,1757009619285077810
0,4.425711632,20250904141339285,None,12,231.3068389892578,-3,-4,-7,1,2,3,1,0,1757009619285223722
0,4.433026076,20250904141339293,None,12,231.78277587890625,0,-1,6,-3,-7,-4,-3,1,1757009619292616844
0,4.433227062,20250904141339293,None,12,231.78277587890625,-2,2,4,2,2,-3,-2,-2,1757009619292745828
0,4.447532654,20250904141339307,None,12,231.5447998046875,0,-1,-2,-4,-1,-3,-1,0,1757009619307454347
0,4.447679997,20250904141339307,None,12,231.5447998046875,1,-2,-2,1,-2,-2,0,1,1757009619307572841
0,4.454799414,20250904141339315,None,12,232.97262573242188,-2,1,-1,-5,-4,-4,-3,-3,1757009619314822673
0,4.454911232,20250904141339315,None,12,232.97262573242188,-3,1,-2,-2,-1,1,2,0,1757009619314912796
0,4.462465048,20250904141339322,None,12,231.06886291503906,-1,3,-1,2,4,0,-1,0,1757009619322442054
0,4.462593794,20250904141339322,None,12,231.06886291503906,-2,-1,-3,-2,-2,-2,0,-3,1757009619322585105
0,4.477621079,20250904141339337,None,12,233.4485626220703,0,-1,-1,-2,-2,0,-1,1,1757009619337539911
0,4.477814436,20250904141339338,None,12,233.4485626220703,0,-3,-2,-2,0,0,2,2,1757009619337686538
0,4.48507905,20250904141339345,None,12,230.1169891357422,-1,-4,-1,-2,-2,-2,-6,-3,1757009619345020055
0,4.485273838,20250904141339345,None,12,230.1169891357422,0,-5,-4,-2,-4,-1,-3,-3,1757009619345145225
0,4.500144959,20250904141339360,None,12,231.06886291503906,2,1,4,1,-1,-3,-1,2,1757009619360023975
0,4.5003585820000005,20250904141339360,None,12,231.06886291503906,3,3,1,0,2,2,4,1,1757009619360172748
0,4.507608175,20250904141339367,None,12,232.73464965820312,-4,-4,-1,-2,-7,-6,1,-2,1757009619367525339
0,4.50782609,20250904141339368,None,12,232.73464965820312,0,0,-2,-1,2,-4,-7,-1,1757009619367663383
0,4.515158892,20250904141339375,None,12,232.73464965820312,-3,-5,2,-4,-4,3,0,0,1757009619374998331
0,4.515423298,20250904141339375,None,12,232.2587127685547,2,3,-2,3,-1,1,-3,0,1757009619375200748
0,4.5303747659999996,20250904141339390,None,12,232.2587127685547,-3,-5,-4,-3,1,0,-2,-4,1757009619390083789
0,4.53061676,20250904141339390,None,12,232.2587127685547,-2,2,1,2,-1,-1,-2,-5,1757009619390255928
0,4.537926436,20250904141339398,None,12,233.21060180664062,0,3,-4,-2,-1,-2,-2,1,1757009619397533893
0,4.538196325,20250904141339398,None,12,233.21060180664062,1,-3,-3,1,-3,-1,1,-3,1757009619397670745
0,4.54519701,20250904141339405,None,12,231.3068389892578,-2,-1,-1,-3,-1,2,-5,-1,1757009619404990673
0,4.545401812,20250904141339405,None,12,231.3068389892578,-1,1,-2,-3,-1,-2,-3,-2,1757009619405135869
0,4.560345173,20250904141339420,None,12,231.78277587890625,-1,3,1,0,-5,1,-1,4,1757009619419963359
0,4.560542822,20250904141339420,None,12,231.78277587890625,-3,-1,-2,-2,3,2,1,-1,1757009619420075416
0,4.567899227,20250904141339428,None,12,231.78277587890625,1,4,0,-1,2,-2,-3,-2,1757009619427526712
0,4.568291187,20250904141339428,None,12,231.78277587890625,1,0,-2,-3,0,0,-1,2,1757009619427643060
0,4.575441122,20250904141339435,None,12,233.21060180664062,0,-2,0,-4,0,0,-3,-7,1757009619435010671
0,4.575690985,20250904141339435,None,12,233.21060180664062,-2,-2,0,2,1,2,0,-1,1757009619435130834
0,4.590509892,20250904141339450,None,12,232.73464965820312,1,-2,0,-2,-4,-2,0,-3,1757009619450088739
0,4.590725184,20250904141339450,None,12,232.73464965820312,-4,2,-2,-1,-1,-1,-4,1,1757009619450248956
0,4.597930908,20250904141339458,None,12,231.5447998046875,0,-5,-1,0,0,0,-1,-1,1757009619457518577
0,4.598300696,20250904141339458,None,12,231.5447998046875,-2,-4,-4,1,-1,1,1,-1,1757009619457632780
0,4.605331898,20250904141339465,None,12,231.5447998046875,1,1,5,-3,-2,1,-1,0,1757009619464976072
0,4.605553866,20250904141339465,None,12,231.5447998046875,-5,2,-2,-3,-2,-1,1,0,1757009619465080022
0,4.620455742,20250904141339480,None,12,232.49668884277344,-6,-5,-1,0,-1,1,0,0,1757009619480003356
0,4.620729208,20250904141339481,None,12,232.49668884277344,4,6,1,-1,-2,0,3,-1,1757009619480119466
0,4.627756357,20250904141339488,None,12,230.1169891357422,-4,-4,0,-3,-1,-6,-7,-1,1757009619487433195
0,4.627957106,20250904141339488,None,12,230.1169891357422,0,-7,1,-1,-1,-4,2,-3,1757009619487533807
0,4.635407925,20250904141339495,None,12,232.49668884277344,0,-1,0,2,1,1,3,2,1757009619494979619
0,4.635624409,20250904141339495,None,12,232.49668884277344,2,1,-1,-3,-1,3,1,0,1757009619495086908
0,4.650121451,20250904141339510,None,12,231.3068389892578,0,0,-2,5,5,4,0,0,1757009619510015726
0,4.650372505,20250904141339510,None,12,231.3068389892578,-4,-1,-4,-1,-2,-1,-3,0,1757009619510143518
0,4.65763855,20250904141339517,None,12,233.21060180664062,1,-1,-1,0,0,-2,-1,3,1757009619517578601
0,4.657786131,20250904141339518,None,12,233.21060180664062,-3,1,1,-1,-4,-2,-1,-3,1757009619517724752
0,4.665017367,20250904141339525,None,12,231.06886291503906,2,3,-1,-2,0,-1,0,2,1757009619525020122
0,4.665131569,20250904141339525,None,12,231.06886291503906,1,0,-2,3,-3,0,1,-3,1757009619525135517
0,4.680063725,20250904141339540,None,12,232.97262573242188,-1,-2,2,-2,2,-1,-6,-1,1757009619540017366
0,4.680233479,20250904141339540,None,12,232.97262573242188,-1,-2,-6,5,-2,0,-1,-2,1757009619540165424
0,4.687581778,20250904141339547,None,12,231.78277587890625,-1,-3,0,-1,-1,-2,-2,4,1757009619547512054
0,4.687835455,20250904141339548,None,12,231.78277587890625,-3,1,5,-1,-2,-3,-1,-4,1757009619547683954
0,4.695258141,20250904141339555,None,12,232.49668884277344,0,1,-1,0,0,-3,-1,1,1757009619555260658
0,4.695364714,20250904141339555,None,12,232.49668884277344,-2,-1,-1,-1,2,1,0,-3,1757009619555472612
0,4.710224152,20250904141339570,None,12,231.5447998046875,-3,-5,-3,-1,-3,-3,-2,3,1757009619570168495
0,4.710363388,20250904141339570,None,12,231.5447998046875,0,-2,-4,1,-4,2,-1,-4,1757009619570364713
0,4.7177071569999995,20250904141339577,None,12,232.97262573242188,-3,-4,-1,0,-2,-2,0,-3,1757009619577693939
0,4.717846632,20250904141339578,None,12,232.97262573242188,2,1,-4,-2,0,0,-5,1,1757009619577852010
0,4.725120068,20250904141339585,None,12,232.97262573242188,-1,-1,3,0,-4,2,6,0,1757009619585140466
0,4.7252419,20250904141339585,None,12,232.97262573242188,-2,-1,0,-1,1,-2,-5,-2,1757009619585268735
0,4.740263462,20250904141339600,None,12,233.21060180664062,-2,-4,-4,-3,2,0,-3,1,1757009619600218296
0,4.740401745,20250904141339600,None,12,233.21060180664062,-2,2,-3,0,2,-6,-2,-3,1757009619600412845
0,4.7477386,20250904141339608,None,12,231.3068389892578,0,-5,-3,-1,-4,-2,0,-2,1757009619607694149
0,4.747884751,20250904141339608,None,12,231.3068389892578,-3,0,1,0,1,-2,-1,-7,1757009619607850313
0,4.76273799,20250904141339623,None,12,232.73464965820312,0,3,0,-3,-1,2,2,1,1757009619622698783
0,4.762878418,20250904141339623,None,12,232.73464965820312,-2,1,0,-1,1,-2,-4,0,1757009619622862100
0,4.770200014,20250904141339630,None,12,231.5447998046875,1,2,4,0,1,2,-3,0,1757009619630192041
0,4.770328522,20250904141339630,None,12,231.5447998046875,-1,0,1,-3,-1,2,1,-3,1757009619630363702
0,4.777572394,20250904141339637,None,12,232.2587127685547,-1,-5,0,4,1,-1,1,-2,1757009619637595415
0,4.7776887420000005,20250904141339637,None,12,232.2587127685547,-4,-1,2,1,3,-1,3,3,1757009619637754201
0,4.785072088,20250904141339645,None,12,233.68653869628906,-2,-2,1,-3,-4,-5,-4,0,1757009619645129442
0,4.785218477,20250904141339645,None,12,233.68653869628906,-1,-4,2,-3,0,-4,2,1,1757009619645272016
0,4.800062657,20250904141339660,None,12,232.020751953125,-2,-1,-1,0,-1,0,0,-2,1757009619660053491
0,4.800173283,20250904141339660,None,12,232.020751953125,-1,0,-1,-3,-2,-2,-3,0,1757009619660240650
0,4.807585716,20250904141339667,None,12,232.73464965820312,1,-2,-1,1,0,-2,0,-3,1757009619667594432
0,4.807681322,20250904141339667,None,12,232.73464965820312,0,-1,-1,0,-1,-5,-5,0,1757009619667761087
0,4.814924717,20250904141339675,None,12,229.64105224609375,-1,-1,-3,-2,-1,-1,1,-1,1757009619674991369
0,4.815013409,20250904141339675,None,12,229.64105224609375,-3,1,1,-3,-3,-1,-1,0,1757009619675136089
0,4.83010459,20250904141339690,None,12,230.35494995117188,-2,1,1,1,-1,3,0,-2,1757009619690122842
0,4.830223322,20250904141339690,None,12,230.35494995117188,-3,0,-2,0,1,-2,-3,-3,1757009619690309047
0,4.845623255,20250904141339705,None,12,232.73464965820312,0,-4,0,-1,-1,-1,-2,0,1757009619705673694
0,4.845722199,20250904141339705,None,12,232.73464965820312,-1,1,-2,0,3,-1,7,-1,1757009619705805540
0,4.846336365,20250904141339706,None,12,231.06886291503906,2,2,0,0,-5,-4,-1,1,1757009619706454753
0,4.846402168,20250904141339706,None,12,231.06886291503906,-2,-2,0,-1,-1,1,-6,-1,1757009619706558227
0,4.8598945140000005,20250904141339720,None,12,233.21060180664062,-3,-3,0,-2,-2,-4,-3,-5,1757009619719960212
0,4.860057354,20250904141339720,None,12,233.21060180664062,1,6,4,2,1,1,-1,1,1757009619720076084
0,4.867405892,20250904141339727,None,12,232.020751953125,0,1,-3,-1,-2,0,0,3,1757009619727492094
0,4.867483378,20250904141339727,None,12,232.020751953125,-1,-2,0,-1,-1,-2,-1,-1,1757009619727612257
0,4.874899388,20250904141339735,None,12,232.020751953125,2,-1,-4,0,-2,2,4,-2,1757009619734993457
0,4.8749892710000005,20250904141339735,None,12,232.020751953125,-5,-1,0,-1,-1,-2,-4,0,1757009619735083103
0,4.890017748,20250904141339750,None,12,232.2587127685547,-2,-3,-1,-1,-1,-1,2,0,1757009619749960660
0,4.890191078,20250904141339750,None,12,232.2587127685547,2,3,0,-2,-1,-1,0,-1,1757009619750074148
0,4.897530317,20250904141339757,None,12,230.1169891357422,-1,-6,0,-4,-2,0,-2,-1,1757009619757524251
0,4.89765048,20250904141339757,None,12,230.1169891357422,-3,-2,0,1,-3,-1,-2,-4,1757009619757667779
0,4.904926062,20250904141339765,None,12,232.97262573242188,-1,-4,0,0,2,5,1,1,1757009619764976739
0,4.905078173,20250904141339765,None,12,232.97262573242188,-1,-1,-3,-2,-6,-1,0,-3,1757009619765084743
0,4.919965267,20250904141339780,None,12,230.83090209960938,-1,2,-2,2,1,-5,-2,0,1757009619779978513
0,4.920088291,20250904141339780,None,12,230.83090209960938,0,-3,-4,3,2,-3,-3,0,1757009619780117034
0,4.927339077,20250904141339787,None,12,232.97262573242188,-1,1,4,-2,-1,0,-2,-1,1757009619787411928
0,4.9274585250000005,20250904141339787,None,12,232.97262573242188,-1,6,4,-5,-5,-3,0,-5,1757009619787520408
0,4.935011149,20250904141339795,None,12,231.78277587890625,-3,-2,-3,0,-2,2,1,0,1757009619795002222
0,4.9351511,20250904141339795,None,12,231.78277587890625,1,-1,-4,-2,1,-2,-5,-2,1757009619795119285
0,4.949922562,20250904141339810,None,12,232.020751953125,-1,-1,2,-2,0,5,5,0,1757009619809962034
0,4.950047493,20250904141339810,None,12,232.020751953125,-3,-5,0,-3,-3,-12,-9,-4,1757009619810100317
0,4.957436085,20250904141339817,None,12,232.020751953125,0,0,-1,4,0,-3,2,0,1757009619817500352
0,4.957521916,20250904141339817,None,12,232.020751953125,-1,1,3,-1,2,1,1,-1,1757009619817624330
0,4.964854717,20250904141339825,None,12,231.5447998046875,1,0,2,-1,-3,-3,-1,2,1757009619824956893
0,4.964944601,20250904141339825,None,12,231.5447998046875,-3,-3,-3,1,4,1,1,-3,1757009619825067043
0,4.979937315,20250904141339840,None,12,230.83090209960938,0,0,-1,-1,-3,-3,-1,3,1757009619839986085
0,4.980026722,20250904141339840,None,12,230.83090209960938,-3,-2,-3,-3,-1,1,0,1,1757009619840126037
0,4.987435579,20250904141339847,None,12,233.21060180664062,1,1,0,0,2,-2,2,2,1757009619847515106
0,4.987533093,20250904141339847,None,12,233.21060180664062,-1,-3,-4,1,2,-2,-5,-3,1757009619847632884
0,4.994909764,20250904141339855,None,12,231.3068389892578,1,1,-2,2,-3,-2,-1,-2,1757009619854995250
0,4.995000124,20250904141339855,None,12,231.3068389892578,-1,-2,-2,-3,-2,1,-1,-1,1757009619855109214
0,5.009967327,20250904141339870,None,12,233.21060180664062,3,-3,-3,1,1,1,-1,-1,1757009619869984149
0,5.010243893,20250904141339870,None,12,233.21060180664062,0,2,2,3,-2,-3,-1,-1,1757009619870102882
0,5.01753974,20250904141339877,None,12,231.5447998046875,0,-2,1,-3,-4,1,1,-1,1757009619877482414
0,5.01770854,20250904141339877,None,12,231.5447998046875,-4,-3,-5,-4,-3,1,3,2,1757009619877591133
0,5.025000811,20250904141339885,None,12,232.49668884277344,2,3,2,0,1,2,-1,0,1757009619884972572
0,5.02517128,20250904141339885,None,12,232.49668884277344,1,-3,-1,0,-7,-5,-3,3,1757009619885108232
0,5.040020704,20250904141339900,None,12,232.020751953125,-4,0,-1,-4,-2,2,-1,-5,1757009619899955034
0,5.040189743,20250904141339900,None,12,232.020751953125,1,-1,-1,-1,0,2,2,2,1757009619900055885
0,5.047535181,20250904141339907,None,12,232.020751953125,-2,1,-4,0,-1,-3,0,1,1757009619907502412
0,5.047724724,20250904141339907,None,12,232.020751953125,-2,-1,-2,3,2,-6,-3,-2,1757009619907637596
0,5.054910898,20250904141339915,None,12,232.49668884277344,0,-3,-2,-2,-2,-1,-3,-5,1757009619914943218
0,5.055079222,20250904141339915,None,12,232.49668884277344,0,-1,-3,-1,0,-3,-3,-1,1757009619915044784
0,5.069969893,20250904141339930,None,12,233.21060180664062,2,-1,-1,-1,-2,3,2,-3,1757009619929975986
0,5.070148707,20250904141339930,None,12,233.21060180664062,0,-1,1,1,-1,1,-2,-3,1757009619930077075
0,5.077444315,20250904141339937,None,12,229.87901306152344,-3,-2,-4,0,1,-1,-1,-1,1757009619937479257
0,5.077613592,20250904141339937,None,12,229.87901306152344,-1,-5,-1,0,0,-1,-3,-1,1757009619937584161
0,5.084896565,20250904141339945,None,12,229.87901306152344,-2,1,7,1,1,0,1,-1,1757009619944929361
0,5.085048676,20250904141339945,None,12,229.87901306152344,-1,-3,-4,-3,3,1,-2,-1,1757009619945044279
0,5.100111723,20250904141339960,None,12,230.35494995117188,1,-1,-3,0,-4,-1,0,2,1757009619960008621
0,5.100251198,20250904141339960,None,12,230.35494995117188,-2,2,1,2,-2,-2,1,0,1757009619960157394
0,5.107549429,20250904141339967,None,12,232.49668884277344,-2,1,-3,-2,-5,2,0,1,1757009619967537403
0,5.10770607,20250904141339967,None,12,232.49668884277344,-2,0,1,-2,-3,2,2,1,1757009619967674970
0,5.114897967,20250904141339975,None,12,231.5447998046875,-1,-2,1,2,-1,0,-5,-1,1757009619974960088
0,5.115008593,20250904141339975,None,12,231.5447998046875,0,-1,-3,-3,-2,-1,-3,0,1757009619975089311
0,5.130133867,20250904141339990,None,12,231.78277587890625,-1,0,-3,-5,1,-2,-2,0,1757009619990023374
0,5.130359411,20250904141339990,None,12,231.78277587890625,-6,0,1,-3,-1,-3,0,-1,1757009619990163803
0,5.137416125,20250904141339997,None,12,231.5447998046875,4,4,-1,0,0,4,7,0,1757009619997472047
0,5.137517691,20250904141339997,None,12,231.5447998046875,2,-3,3,-2,-1,2,-2,1,1757009619997580289
0,5.145061016,20250904141340005,None,12,231.3068389892578,-2,-4,0,0,-2,-6,-4,4,1757009620005017995
0,5.145211697,20250904141340005,None,12,231.3068389892578,-4,-2,-6,1,-2,0,0,-8,1757009620005151271
0,5.1599755290000004,20250904141340020,None,12,233.21060180664062,-1,0,0,0,6,2,0,0,1757009620019949197
0,5.160208941,20250904141340020,None,12,231.06886291503906,1,-3,-3,-4,-5,-2,0,3,1757009620020063400
0,5.167473078,20250904141340027,None,12,231.06886291503906,-2,-2,-2,2,3,0,1,-1,1757009620027535915
0,5.16757679,20250904141340027,None,12,231.06886291503906,-3,0,0,0,0,0,0,-5,1757009620027667522
0,5.174899578,20250904141340035,None,12,232.97262573242188,2,-3,-2,1,-2,-1,1,3,1757009620034985780
0,5.17495966,20250904141340035,None,12,232.97262573242188,-1,-1,1,0,-1,-1,-4,-1,1757009620035068511
0,5.190062523,20250904141340050,None,12,232.73464965820312,-3,-2,-2,1,-1,-4,0,1,1757009620049973249
0,5.190347672,20250904141340050,None,12,232.73464965820312,0,-2,-1,0,0,0,-1,-2,1757009620050076246
0,5.197501421,20250904141340057,None,12,232.020751953125,1,-4,-1,-5,-3,-2,-2,-1,1757009620057502031
0,5.197617054,20250904141340057,None,12,232.020751953125,1,-3,-1,1,-2,0,-3,-2,1757009620057617902
0,5.204933167,20250904141340065,None,12,232.020751953125,-3,-4,-1,-2,-2,-5,-1,-2,1757009620064948558
0,5.205487251,20250904141340065,None,12,232.020751953125,0,-2,1,0,-1,-1,0,0,1757009620065048933
0,5.220028401,20250904141340080,None,12,232.73464965820312,-2,2,1,4,2,0,-2,-7,1757009620079958677
0,5.220164538,20250904141340080,None,12,232.73464965820312,-3,-3,-1,-4,-4,-4,-1,0,1757009620080016613
0,5.227519036,20250904141340087,None,12,231.78277587890625,-2,-2,-3,-3,-3,1,-1,0,1757009620087541341
0,5.22762394,20250904141340087,None,12,231.78277587890625,0,0,1,-7,0,-3,-3,5,1757009620087639331
0,5.235025406,20250904141340095,None,12,232.97262573242188,-5,-2,-3,-1,0,0,5,-4,1757009620095088481
0,5.23510623,20250904141340095,None,12,232.97262573242188,2,1,-1,5,3,2,-5,-2,1757009620095184564
0,5.250113487,20250904141340110,None,12,231.06886291503906,3,-2,1,-3,-4,-2,-2,0,1757009620110102415
0,5.250240326,20250904141340110,None,12,231.06886291503906,-1,1,0,2,-2,2,2,0,1757009620110244035
0,5.257573605,20250904141340117,None,12,233.21060180664062,1,-3,-1,-3,0,1,0,-2,1757009620117591381
0,5.257862806,20250904141340118,None,12,233.21060180664062,1,-2,0,0,1,1,-1,0,1757009620117692232
0,5.264883995,20250904141340125,None,12,231.06886291503906,1,-1,-3,-3,-3,-3,-1,2,1757009620124933719
0,5.26499629,20250904141340125,None,12,231.06886291503906,-3,-1,3,-1,1,1,0,-5,1757009620125030517
0,5.28006196,20250904141340140,None,12,233.21060180664062,0,-5,-1,-2,0,2,0,2,1757009620140061855
0,5.280189514,20250904141340140,None,12,233.21060180664062,0,-2,-3,-7,-4,0,-1,0,1757009620140158891
0,5.287427187,20250904141340147,None,12,231.78277587890625,1,-1,-1,-2,-1,0,-1,-2,1757009620147464513
0,5.287518501,20250904141340147,None,12,231.78277587890625,-1,-1,-3,-1,0,0,1,0,1757009620147605419
0,5.294945479,20250904141340155,None,12,232.2587127685547,-3,-1,-1,-1,3,-1,-3,-2,1757009620154940366
0,5.295091868,20250904141340155,None,12,232.2587127685547,-1,-2,-1,-2,0,1,0,1,1757009620155045986
0,5.309928179,20250904141340170,None,12,231.3068389892578,1,-1,-1,-1,-3,1,-1,-1,1757009620169963598
0,5.3100738530000005,20250904141340170,None,12,231.3068389892578,-2,-3,-6,-1,-3,1,-1,0,1757009620170086383
0,5.317418099,20250904141340177,None,12,232.73464965820312,1,2,1,-1,-2,-2,-1,0,1757009620177471160
0,5.317510605,20250904141340177,None,12,232.73464965820312,-3,-2,-1,0,-2,-1,3,1,1757009620177586078
0,5.332437754,20250904141340192,None,12,230.59292602539062,0,0,-4,-4,-2,2,-8,1,1757009620192475080
0,5.332562447,20250904141340192,None,12,230.59292602539062,2,-3,-1,0,-1,-6,-1,1,1757009620192591190
0,5.339912653,20250904141340200,None,12,233.21060180664062,0,2,2,2,0,1,0,-3,1757009620199924945
0,5.340079785,20250904141340200,None,12,233.21060180664062,1,3,0,-1,-4,-3,-3,2,1757009620200041055
0,5.347454548,20250904141340207,None,12,230.83090209960938,2,1,0,0,-1,0,0,3,1757009620207466840
0,5.347584725,20250904141340207,None,12,230.83090209960938,-2,-5,-4,1,0,1,-1,-1,1757009620207573652
0,5.354899407,20250904141340215,None,12,232.020751953125,-3,-4,-1,-1,-1,0,3,-3,1757009620214922904
0,5.35507536,20250904141340215,None,12,232.020751953125,-3,-2,0,0,1,0,-2,-2,1757009620215020895
0,5.369970083,20250904141340230,None,12,230.83090209960938,1,-2,-1,-5,2,-2,-2,3,1757009620229973316
0,5.370121718,20250904141340230,None,12,230.83090209960938,-2,1,1,2,1,-1,-2,-1,1757009620230097293
0,5.377465725,20250904141340237,None,12,231.5447998046875,-1,-3,-1,-3,-3,-3,0,0,1757009620237479686
0,5.377603293,20250904141340237,None,12,231.5447998046875,2,3,0,-3,0,-1,1,0,1757009620237580537
0,5.384935379,20250904141340245,None,12,231.78277587890625,-3,-1,-2,1,0,-5,0,0,1757009620244971275
0,5.385071039,20250904141340245,None,12,231.78277587890625,-1,-4,-1,-2,-1,0,2,1,1757009620245093107
0,5.400003195,20250904141340260,None,12,232.73464965820312,-2,-1,-6,-4,-1,-2,0,0,1757009620259962320
0,5.400201798,20250904141340260,None,12,232.73464965820312,-3,-2,-1,-4,-2,-1,-2,-1,1757009620260075807
0,5.40806365,20250904141340268,None,12,232.73464965820312,-1,0,-1,-3,1,-4,-1,0,1757009620267694234
0,5.408272028,20250904141340268,None,12,230.59292602539062,1,0,-1,0,0,2,0,3,1757009620267890453
0,5.415438891,20250904141340275,None,12,230.59292602539062,-1,1,2,-4,-3,2,-3,2,1757009620275178909
0,5.415592194,20250904141340275,None,12,230.59292602539062,-3,2,-4,-4,-3,-9,-3,-3,1757009620275383949
0,5.430474997,20250904141340290,None,12,229.64105224609375,0,-1,-1,-1,-4,-4,4,0,1757009620290222406
0,5.43061328,20250904141340290,None,12,229.64105224609375,-1,-3,-2,-3,-2,-1,-7,-3,1757009620290432453
0,5.43794632,20250904141340298,None,12,232.49668884277344,-5,-4,-1,-1,0,2,2,0,1757009620297690868
0,5.438094855,20250904141340298,None,12,232.49668884277344,3,3,-2,2,-3,0,0,6,1757009620297865152
0,5.452917338,20250904141340313,None,12,231.06886291503906,-2,0,-3,-3,-1,-2,0,-8,1757009620312678575
0,5.453050137,20250904141340313,None,12,231.06886291503906,-2,0,1,-2,0,1,5,-2,1757009620312870502
0,5.460250616,20250904141340320,None,12,231.78277587890625,4,3,-2,0,1,-1,-5,-1,1757009620320016860
0,5.460395098,20250904141340320,None,12,231.78277587890625,0,0,4,-2,-3,2,-1,0,1757009620320174694
0,5.467675448,20250904141340327,None,12,229.64105224609375,2,0,0,2,1,2,-1,0,1757009620327512264
0,5.467800141,20250904141340328,None,12,229.64105224609375,-2,-2,-4,-1,0,2,-1,-4,1757009620327635765
0,5.482479096,20250904141340342,None,12,230.83090209960938,-3,-2,-2,-1,-1,-2,-1,-3,1757009620342422008
0,5.482563496,20250904141340342,None,12,230.83090209960938,0,0,1,0,-2,-2,1,-1,1757009620342520475
0,5.489998579,20250904141340350,None,12,233.21060180664062,2,1,-2,-1,-3,3,1,0,1757009620349972486
0,5.49021554,20250904141340350,None,12,233.21060180664062,0,-2,-2,-2,0,-1,-1,-1,1757009620350108861
0,5.497545242,20250904141340357,None,12,230.35494995117188,-3,-2,-4,-1,-3,-2,0,1,1757009620357532739
0,5.497687817,20250904141340357,None,12,230.35494995117188,3,4,5,1,-1,-2,2,0,1757009620357679128
0,5.512543678,20250904141340372,None,12,230.35494995117188,2,4,1,0,-4,-1,2,2,1757009620372535228
0,5.512695313,20250904141340372,None,12,230.35494995117188,-1,-2,-2,-1,3,0,-1,2,1757009620372667312
0,5.51992178,20250904141340380,None,12,230.35494995117188,-1,-1,2,-1,-1,0,-2,-5,1757009620379956007
0,5.520130396,20250904141340380,None,12,232.73464965820312,-2,1,-2,-1,-2,2,-1,1,1757009620380064487
0,5.527371645,20250904141340387,None,12,232.73464965820312,0,-2,-1,-1,1,-5,-3,0,1757009620387453556
0,5.527472019,20250904141340387,None,12,232.73464965820312,-3,-1,-1,0,0,-1,-2,-3,1757009620387563943
0,5.542449713,20250904141340402,None,12,232.49668884277344,-3,-4,-2,0,1,-1,3,-1,1757009620402467489
0,5.542557955,20250904141340402,None,12,232.49668884277344,-2,-2,-5,0,-1,0,0,-1,1757009620402567863
0,5.549946308,20250904141340410,None,12,230.83090209960938,2,4,0,-2,1,1,-4,-2,1757009620409988880
0,5.550088167,20250904141340410,None,12,230.83090209960938,-3,0,-1,0,-1,1,0,3,1757009620410103559
0,5.55744648,20250904141340417,None,12,231.06886291503906,-2,-4,-3,-5,-4,1,4,0,1757009620417505264
0,5.557581902,20250904141340417,None,12,231.06886291503906,-3,-3,3,2,0,-2,0,-4,1757009620417615175
0,5.572554827,20250904141340432,None,12,231.3068389892578,1,-2,-4,2,-5,-3,-7,0,1757009620432535409
0,5.572675228,20250904141340432,None,12,231.3068389892578,-1,-3,-4,-6,-3,2,0,0,1757009620432702541
0,5.580429793,20250904141340440,None,12,230.83090209960938,1,1,-2,2,-3,3,2,1,1757009620440205574
0,5.580637694,20250904141340440,None,12,230.83090209960938,1,-3,-2,1,0,-1,0,2,1757009620440444707
0,5.587641239,20250904141340447,None,12,232.97262573242188,0,0,-3,-2,-1,-1,0,-4,1757009620447588920
0,5.587763071,20250904141340448,None,12,232.97262573242188,-1,1,6,1,1,-1,0,3,1757009620447751522
0,5.603227854,20250904141340463,None,12,231.06886291503906,0,1,-3,1,-2,-3,1,2,1757009620462697744
0,5.603437901,20250904141340463,None,12,231.06886291503906,-1,1,-1,1,2,0,-5,-2,1757009620462875127
0,5.610146523,20250904141340470,None,12,232.73464965820312,0,-1,0,-1,-1,1,-2,-3,1757009620469990968
0,5.61034441,20250904141340470,None,12,232.73464965820312,0,-1,0,-1,-1,0,-2,-3,1757009620470167875
0,5.617791176,20250904141340478,None,12,230.83090209960938,-1,-1,-1,1,2,1,3,0,1757009620477523565
0,5.618013859,20250904141340478,None,12,230.83090209960938,-2,3,2,-2,-4,-2,0,0,1757009620477662563
0,5.63300705,20250904141340493,None,12,230.83090209960938,-2,-2,-3,1,0,-1,1,0,1757009620492632627
0,5.633218527,20250904141340493,None,12,230.83090209960938,-2,2,1,-2,-2,2,0,0,1757009620492817640
0,5.640269995,20250904141340500,None,12,230.83090209960938,1,-2,-2,-2,-1,-2,-2,0,1757009620500008344
0,5.640518189,20250904141340500,None,12,230.83090209960938,-2,-2,-2,0,-3,-4,-1,-3,1757009620500129938
0,5.647768259,20250904141340508,None,12,231.3068389892578,1,-1,2,2,2,4,6,1,1757009620507519245
0,5.647971153,20250904141340508,None,12,231.3068389892578,1,-4,2,-1,-3,-6,-2,-2,1757009620507637500
0,5.662505627,20250904141340522,None,12,231.06886291503906,3,4,0,1,1,-3,-1,1,1757009620522401094
0,5.662640572,20250904141340522,None,12,231.06886291503906,-2,-2,1,0,-1,-2,-1,-3,1757009620522493362
0,5.670461655,20250904141340530,None,12,233.21060180664062,-3,1,0,-1,-2,0,0,-1,1757009620530021667
0,5.6706802849999995,20250904141340530,None,12,233.21060180664062,0,-2,-1,-3,-2,0,-2,-2,1757009620530140399
0,5.677901983,20250904141340538,None,12,231.06886291503906,-4,-2,-2,1,0,1,-8,0,1757009620537479639
0,5.67829895,20250904141340538,None,12,231.06886291503906,-1,-3,-4,0,1,0,-1,-3,1757009620537586212
0,5.693061352,20250904141340553,None,12,232.97262573242188,-2,3,7,0,-4,-3,-1,1,1757009620552538871
0,5.693290472,20250904141340553,None,12,232.97262573242188,0,-1,-1,0,0,-1,4,2,1757009620552680492
0,5.708381176,20250904141340568,None,12,232.73464965820312,-3,0,-1,0,-1,-1,0,-1,1757009620568095445
0,5.708541393,20250904141340568,None,12,232.73464965820312,0,-1,0,-2,0,-1,1,-1,1757009620568193197
0,5.709171534,20250904141340569,None,12,232.73464965820312,-1,-1,2,2,0,-3,-4,0,1757009620568932294
0,5.709373236,20250904141340569,None,12,232.73464965820312,0,1,2,-1,-1,0,-1,-1,1757009620569026708
0,5.722779036,20250904141340583,None,12,230.83090209960938,2,2,-1,-2,-1,-1,-4,-1,1757009620582470178
0,5.723096848,20250904141340583,None,12,230.83090209960938,-4,-1,3,2,0,5,2,-2,1757009620582535028
0,5.730199099,20250904141340590,None,12,233.21060180664062,0,-2,-1,-3,-2,0,-5,0,1757009620589978933
0,5.730483771,20250904141340590,None,12,233.21060180664062,-3,0,-1,1,-1,-4,-2,-2,1757009620590085744
0,5.737848997,20250904141340598,None,12,232.49668884277344,-1,-1,-3,0,7,5,3,-2,1757009620597651004
0,5.738040924,20250904141340598,None,12,232.49668884277344,-2,-3,-4,-1,-3,0,1,-2,1757009620597931623
0,5.753011227,20250904141340613,None,12,232.2587127685547,0,-2,-2,-4,2,-4,-1,0,1757009620612536907
0,5.753234863,20250904141340613,None,12,232.2587127685547,-3,-1,1,0,0,-1,1,-1,1757009620612752676
0,5.760511398,20250904141340620,None,12,232.2587127685547,1,-1,-2,-2,0,1,-3,-2,1757009620620064496
0,5.7608265880000005,20250904141340621,None,12,229.16510009765625,-2,-1,1,3,-4,0,-1,1,1757009620620215892
0,5.767906666,20250904141340628,None,12,229.16510009765625,0,-1,-5,-1,-1,-1,-1,-6,1757009620627490520
0,5.768152476,20250904141340628,None,12,229.16510009765625,2,-2,3,2,1,-5,0,-1,1757009620627626419
0,5.782968283,20250904141340643,None,12,230.59292602539062,0,9,1,0,0,0,2,-3,1757009620642543315
0,5.783210278,20250904141340643,None,12,230.59292602539062,-2,1,1,-2,-4,0,0,-2,1757009620642685890
0,5.790451288,20250904141340650,None,12,232.49668884277344,-2,-1,-2,-3,-2,1,-2,3,1757009620650017976
0,5.790674687,20250904141340650,None,12,232.49668884277344,-5,-4,-5,-1,2,-1,0,-2,1757009620650156497
0,5.797956467,20250904141340658,None,12,231.3068389892578,-2,-2,0,-3,2,-2,-8,-1,1757009620657528877
0,5.798354864,20250904141340658,None,12,231.3068389892578,-1,-1,0,-2,-2,-3,-2,1,1757009620657671213
0,5.812928438,20250904141340673,None,12,232.020751953125,-3,0,-3,-7,-1,0,3,0,1757009620672499895
0,5.813171864,20250904141340673,None,12,232.020751953125,-1,-6,-1,0,-4,-1,-1,-3,1757009620672648429
0,5.8204331400000004,20250904141340680,None,12,231.3068389892578,1,0,4,-4,-1,-3,0,0,1757009620680027484
0,5.820632696,20250904141340680,None,12,231.3068389892578,-3,1,-3,-2,4,-1,1,0,1757009620680154323
0,5.827889919,20250904141340688,None,12,231.5447998046875,-3,-2,-5,-7,-8,-5,-3,-2,1757009620687492609
0,5.828244686,20250904141340688,None,12,231.5447998046875,3,1,0,1,1,0,-2,2,1757009620687608718
0,5.843015671,20250904141340703,None,12,230.35494995117188,-4,2,-1,2,-1,-1,-1,-5,1757009620702532291
0,5.843238831,20250904141340703,None,12,230.35494995117188,4,-1,4,-1,-3,0,2,4,1757009620702660799
0,5.850438357,20250904141340710,None,12,230.35494995117188,0,1,-1,-2,1,1,-1,-5,1757009620709999084
0,5.85076499,20250904141340711,None,12,230.35494995117188,0,1,1,0,-1,1,3,-3,1757009620710127115
0,5.8578846460000005,20250904141340718,None,12,232.97262573242188,-2,-3,-3,-2,-1,-4,-4,-2,1757009620717505931
0,5.858136654,20250904141340718,None,12,232.97262573242188,-1,-4,-1,-1,0,2,4,0,1757009620717635869
0,5.872935772,20250904141340733,None,12,233.4485626220703,-1,2,0,0,-3,0,-1,-3,1757009620732589006
0,5.873168945,20250904141340733,None,12,233.4485626220703,-2,-1,1,-2,-2,-1,-3,-2,1757009620732754945
0,5.880234003,20250904141340740,None,12,231.78277587890625,1,4,1,1,-1,-3,3,-2,1757009620739973783
0,5.880415917,20250904141340740,None,12,231.78277587890625,5,0,0,0,-1,3,1,-4,1757009620740101575
0,5.88788867,20250904141340748,None,12,231.78277587890625,-4,-6,-1,-2,-1,2,1,-1,1757009620747552394
0,5.8881840709999995,20250904141340748,None,12,231.78277587890625,-4,-1,0,0,1,-7,-3,-1,1757009620747697591
0,5.90281868,20250904141340763,None,12,230.59292602539062,-1,-2,-1,-1,1,-2,2,2,1757009620762555599
0,5.903141976,20250904141340763,None,12,230.59292602539062,-1,-2,0,1,-2,0,2,0,1757009620762711763
0,5.9103086000000005,20250904141340770,None,12,228.92713928222656,-2,-4,-1,-2,-1,1,0,1,1757009620770047664
0,5.910516501,20250904141340770,None,12,228.92713928222656,2,1,2,-2,-1,1,2,-3,1757009620770198822
0,5.917897701,20250904141340778,None,12,232.020751953125,-2,-1,-2,1,4,4,2,1,1757009620777500867
0,5.918141365,20250904141340778,None,12,232.020751953125,-3,-1,-1,-2,0,-3,-7,-6,1757009620777619123
0,5.93317008,20250904141340793,None,12,230.1169891357422,-2,-2,-1,-1,-2,2,3,1,1757009620792577743
0,5.933399677,20250904141340793,None,12,230.1169891357422,-1,-3,-1,-3,2,1,1,-1,1757009620792749166
0,5.940537691,20250904141340800,None,12,232.97262573242188,-4,-4,-6,-3,0,0,1,-4,1757009620800024986
0,5.940798044,20250904141340801,None,12,232.97262573242188,0,-1,-1,0,-3,-2,0,-3,1757009620800173044
0,5.94803381,20250904141340808,None,12,231.06886291503906,1,-1,-1,0,0,-2,-2,1,1757009620807573080
0,5.94825387,20250904141340808,None,12,231.06886291503906,3,-1,-3,0,0,-2,-1,-1,1757009620807718515
0,5.962959051,20250904141340823,None,12,231.5447998046875,-2,2,-2,-1,0,0,0,1,1757009620822535753
0,5.963228703,20250904141340823,None,12,231.5447998046875,2,-1,-3,-3,0,0,1,-1,1757009620822686195
0,5.970552445,20250904141340830,None,12,231.5447998046875,-3,1,0,2,1,0,-1,-2,1757009620830071210
0,5.970772505,20250904141340831,None,12,231.5447998046875,-4,-3,1,0,-4,-3,-3,0,1757009620830246210
0,5.977917433,20250904141340838,None,12,232.73464965820312,0,2,2,-2,2,0,-1,-1,1757009620837507009
0,5.978169918,20250904141340838,None,12,232.73464965820312,-2,-3,-4,0,-2,1,-2,-4,1757009620837639331
0,5.992959738,20250904141340853,None,12,231.06886291503906,-3,-3,-5,0,-1,-2,-1,-2,1757009620852530717
0,5.993371248,20250904141340853,None,12,231.06886291503906,-5,-3,-2,-1,1,-2,0,0,1757009620852674722
0,6.000333548,20250904141340860,None,12,232.97262573242188,2,3,0,-3,0,2,1,1,1757009620859902858
0,6.000533104,20250904141340860,None,12,232.97262573242188,3,3,0,0,3,10,4,5,1757009620860016107
0,6.007876396,20250904141340868,None,12,232.97262573242188,-3,-4,-3,-1,-7,-7,-2,-2,1757009620867533683
0,6.008285284,20250904141340868,None,12,232.97262573242188,-1,-5,1,2,2,-3,0,1,1757009620867657899
0,6.023124218,20250904141340883,None,12,233.21060180664062,2,3,2,2,4,1,-1,0,1757009620882627487
0,6.02336216,20250904141340883,None,12,233.21060180664062,-5,-1,0,-3,0,2,-1,1,1757009620882772445
0,6.030383587,20250904141340890,None,12,231.06886291503906,-1,-3,-4,-2,-1,2,2,-1,1757009620890019655
0,6.030605316,20250904141340890,None,12,231.06886291503906,-3,1,-2,-6,0,0,-1,-4,1757009620890143156
0,6.037814617,20250904141340898,None,12,232.73464965820312,-2,-3,0,0,-1,0,-3,1,1757009620897514820
0,6.038034916,20250904141340898,None,12,232.73464965820312,-1,0,0,-2,-1,1,0,-6,1757009620897638797
0,6.052971602,20250904141340913,None,12,230.1169891357422,-1,1,-1,-3,-2,0,-1,1,1757009620912529945
0,6.053360224,20250904141340913,None,12,230.1169891357422,-1,-3,-3,2,2,0,1,-2,1757009620912672519
0,6.060394049,20250904141340920,None,12,232.020751953125,-1,0,-3,-3,-1,0,-2,3,1757009620919998884
0,6.060576677,20250904141340920,None,12,232.020751953125,-1,0,-1,0,-3,-4,-7,-9,1757009620920134067
0,6.067464113,20250904141340927,None,12,232.020751953125,1,2,-2,-2,-1,1,-3,-1,1757009620927494287
