gt,time_elapsed,current_time,current_task,motor_position,futek,emg0,emg1,emg2,emg3,emg4,emg5,emg6,emg7,emg_timer_stamp
0,0.037615299,20250904113020560,None,2,231.78277587890625,1,0,-3,1,-1,1,7,2,1756999820560017585
0,0.03776598,20250904113020560,None,2,231.78277587890625,-1,-1,1,-3,-2,0,-2,0,1756999820560139894
0,0.044966221,20250904113020567,None,2,230.83090209960938,-3,-2,2,-2,-2,-6,-12,0,1756999820567468881
0,0.045080185,20250904113020567,None,2,230.83090209960938,-3,-5,1,-1,1,7,14,-5,1756999820567578315
0,0.06006217,20250904113020582,None,2,231.06886291503906,-1,-2,-1,0,-1,-1,0,0,1756999820582497358
0,0.060172796,20250904113020582,None,2,231.06886291503906,-1,6,1,0,0,-3,-5,-4,1756999820582662105
0,0.067399502,20250904113020590,None,2,231.3068389892578,-3,-2,-2,-1,-1,-4,-2,-2,1756999820589961528
0,0.067481756,20250904113020590,None,2,231.3068389892578,-2,-3,0,1,0,-1,-6,1,1756999820590063571
0,0.074846983,20250904113020597,None,2,232.020751953125,1,1,-2,1,-1,-3,1,-2,1756999820597408294
0,0.074916601,20250904113020597,None,2,232.020751953125,0,0,2,-1,-1,-3,1,0,1756999820597505569
0,0.090123892,20250904113020612,None,2,230.35494995117188,-3,0,1,-2,-4,-2,-1,-8,1756999820612484455
0,0.090234756,20250904113020612,None,2,230.35494995117188,-1,0,-2,1,7,0,0,1,1756999820612606048
0,0.097811222,20250904113020620,None,2,232.2587127685547,-3,-4,-1,-1,-1,-3,-2,-5,1756999820620076894
0,0.098021984,20250904113020620,None,2,232.2587127685547,0,0,0,-2,-3,-2,-1,-2,1756999820620195388
0,0.105665207,20250904113020628,None,2,230.83090209960938,-1,-1,-2,-1,1,-2,0,0,1756999820627663135
0,0.10578227,20250904113020628,None,2,230.83090209960938,0,2,-3,-2,2,1,-4,-4,1756999820627802133
0,0.120620251,20250904113020643,None,2,232.020751953125,0,-5,-3,-2,-1,-5,-10,-1,1756999820642637491
0,0.120950699,20250904113020643,None,2,232.020751953125,1,0,-3,-2,0,4,18,0,1756999820642789602
0,0.128018856,20250904113020650,None,2,230.59292602539062,-3,-4,3,0,-1,-1,-3,-2,1756999820650127887
0,0.128268003,20250904113020651,None,2,230.59292602539062,1,1,0,1,-3,-4,1,0,1756999820650255918
0,0.135477543,20250904113020658,None,2,231.3068389892578,2,4,-3,-3,0,-2,-4,1,1756999820657566070
0,0.135697126,20250904113020658,None,2,231.3068389892578,-1,-2,-1,0,1,-1,-3,-2,1756999820657683610
0,0.150406837,20250904113020673,None,2,231.3068389892578,0,-1,-1,0,1,2,2,0,1756999820672575473
0,0.150641441,20250904113020673,None,2,231.3068389892578,3,-4,2,0,-2,1,1,3,1756999820672699689
0,0.158203363,20250904113020680,None,2,231.3068389892578,0,0,1,2,6,0,0,1,1756999820680202484
0,0.158449411,20250904113020681,None,2,231.3068389892578,1,2,0,-1,0,1,2,-1,1756999820680414676
0,0.165618658,20250904113020688,None,2,231.78277587890625,-6,-7,0,1,-2,0,-2,-4,1756999820687586784
0,0.165840387,20250904113020688,None,2,231.78277587890625,1,-3,-5,0,-4,0,-5,-5,1756999820687732219
0,0.181143284,20250904113020703,None,2,232.020751953125,-3,-5,1,-2,-1,-1,0,-3,1756999820703093767
0,0.181334257,20250904113020704,None,2,232.020751953125,-1,1,1,-1,-1,1,0,0,1756999820703244209
0,0.187914133,20250904113020710,None,2,230.1169891357422,0,-1,0,1,-1,-1,1,-4,1756999820710076570
0,0.188088179,20250904113020710,None,2,230.1169891357422,1,-3,-1,-1,1,-5,-11,0,1756999820710195541
0,0.195333004,20250904113020718,None,2,230.1169891357422,1,6,1,-2,0,4,7,1,1756999820717528343
0,0.195528984,20250904113020718,None,2,230.1169891357422,-4,-1,-2,-1,1,0,2,0,1756999820717652797
0,0.218886375,20250904113020741,None,2,231.78277587890625,1,-3,-1,1,3,0,2,-1,1756999820740829467
0,0.219114065,20250904113020741,None,2,231.78277587890625,-2,0,1,-1,-3,-3,-3,-1,1756999820740980625
0,0.219227314,20250904113020741,None,2,231.78277587890625,-6,-5,-5,0,2,-4,-6,-3,1756999820741623401
0,0.219320297,20250904113020742,None,2,231.78277587890625,-5,-1,-1,1,-1,1,2,2,1756999820741811275
0,0.225066185,20250904113020747,None,2,231.06886291503906,-3,-12,-1,-1,-1,-3,-2,-1,1756999820747576236
0,0.225176096,20250904113020747,None,2,231.06886291503906,1,3,0,-1,1,-1,0,-1,1756999820747716903
0,0.240050793,20250904113020762,None,2,231.3068389892578,-1,-4,-3,-1,-2,-4,2,4,1756999820762581586
0,0.240172386,20250904113020762,None,2,231.3068389892578,1,2,0,-3,1,0,-1,1,1756999820762710094
0,0.247604132,20250904113020770,None,2,231.78277587890625,-2,0,3,-2,-3,-1,0,-1,1756999820770081281
0,0.247725725,20250904113020770,None,2,231.78277587890625,0,0,-2,-1,-4,-2,-5,-5,1756999820770240068
0,0.255143881,20250904113020777,None,2,231.06886291503906,-1,0,-4,-2,0,2,2,4,1756999820777634143
0,0.255254507,20250904113020777,None,2,231.06886291503906,1,0,0,-1,-2,-2,-1,-4,1756999820777777194
0,0.270175695,20250904113020792,None,2,230.83090209960938,0,-2,-2,-3,-2,1,-8,-2,1756999820792621374
0,0.270320892,20250904113020793,None,2,230.83090209960938,0,-1,-1,1,2,2,8,-1,1756999820792779207
0,0.277555466,20250904113020800,None,2,230.83090209960938,-1,1,-4,0,0,-1,-1,2,1756999820800087690
0,0.277767181,20250904113020800,None,2,230.83090209960938,2,-3,-3,-3,-2,-2,-2,-2,1756999820800210714
0,0.285157919,20250904113020807,None,2,232.020751953125,-2,-3,-3,2,-2,0,-3,1,1756999820807650566
0,0.285285473,20250904113020808,None,2,232.020751953125,0,-6,-2,-5,-6,-2,-2,-2,1756999820807814121
0,0.300119638,20250904113020822,None,2,231.78277587890625,1,-3,0,1,3,2,-2,0,1756999820822599649
0,0.300234795,20250904113020822,None,2,231.78277587890625,2,6,-2,-2,0,-1,1,-3,1756999820822758913
0,0.307617187,20250904113020830,None,2,231.06886291503906,-1,1,0,-3,0,-2,-4,-4,1756999820830100297
0,0.307734966,20250904113020830,None,2,231.06886291503906,-2,0,-1,1,1,0,1,0,1756999820830288887
0,0.31514883,20250904113020837,None,2,231.06886291503906,-2,3,2,-1,-1,0,0,0,1756999820837665796
0,0.315415859,20250904113020838,None,2,231.06886291503906,-3,-2,-1,-1,0,0,-6,-1,1756999820837804794
0,0.330090761,20250904113020852,None,2,231.3068389892578,4,-2,-2,-3,-1,-1,-1,-2,1756999820852619409
0,0.330321789,20250904113020853,None,2,231.3068389892578,0,0,-2,0,0,-5,-8,0,1756999820852805614
0,0.337556124,20250904113020860,None,2,231.06886291503906,0,-5,1,-1,1,6,16,2,1756999820860068321
0,0.337642193,20250904113020860,None,2,231.06886291503906,2,7,1,0,-4,0,-4,-4,1756999820860221624
0,0.345029592,20250904113020867,None,2,231.78277587890625,-3,-15,0,-2,-2,-4,-2,-4,1756999820867566585
0,0.345135689,20250904113020867,None,2,231.78277587890625,-2,-1,1,-3,-1,-2,-4,-2,1756999820867685794
0,0.360090494,20250904113020882,None,2,230.35494995117188,-4,6,0,-2,3,0,2,1,1756999820882590770
0,0.360195875,20250904113020882,None,2,230.35494995117188,-2,2,-3,-4,-2,0,-3,0,1756999820882768392
0,0.367546558,20250904113020890,None,2,232.020751953125,0,-2,-2,-1,0,-1,-3,2,1756999820890049219
0,0.367887974,20250904113020890,None,2,232.020751953125,1,-3,-3,-3,-1,0,-1,-2,1756999820890172481
0,0.375225782,20250904113020897,None,2,230.59292602539062,0,8,2,-1,0,-1,2,-3,1756999820897629499
0,0.375433922,20250904113020898,None,2,230.59292602539062,-3,-14,-1,-2,0,-2,-5,-1,1756999820897787570
0,0.390283108,20250904113020913,None,2,231.78277587890625,0,0,0,1,-2,0,0,1,1756999820912658691
0,0.390444994,20250904113020913,None,2,231.78277587890625,1,4,0,-1,2,0,1,-1,1756999820912822723
0,0.405841112,20250904113020928,None,2,231.5447998046875,-1,-2,-4,-1,-1,0,-4,-3,1756999820928296804
0,0.405977964,20250904113020928,None,2,231.5447998046875,-3,-2,0,1,-3,2,4,1,1756999820928447246
0,0.406597614,20250904113020929,None,2,231.5447998046875,-2,-2,-1,-2,-2,-6,-15,-3,1756999820929007053
0,0.406784773,20250904113020929,None,2,231.5447998046875,0,2,-1,1,1,7,18,-1,1756999820929113864
0,0.420168161,20250904113020942,None,2,230.83090209960938,-1,-4,-1,0,-1,0,-3,-2,1756999820942551374
0,0.420329332,20250904113020943,None,2,230.83090209960938,-1,-5,-1,3,-1,-2,-4,-2,1756999820942691802
0,0.427574158,20250904113020950,None,2,232.020751953125,-1,-1,-3,-2,-4,-2,0,-2,1756999820950075387
0,0.427670479,20250904113020950,None,2,232.020751953125,0,-3,1,1,3,-3,0,0,1756999820950205087
0,0.442975998,20250904113020965,None,2,230.59292602539062,-6,-1,-2,2,-4,-3,-3,-4,1756999820965476274
0,0.443077087,20250904113020965,None,2,230.59292602539062,0,-2,0,0,0,-5,2,-4,1756999820965637922
0,0.449965715,20250904113020972,None,2,232.020751953125,-2,-3,-2,-1,-1,-2,-4,-2,1756999820972551584
0,0.450045824,20250904113020972,None,2,232.020751953125,-1,0,-1,0,0,1,-1,-2,1756999820972671270
0,0.457655668,20250904113020980,None,2,230.1169891357422,-2,-3,-2,-3,1,-1,1,-2,1756999820980150222
0,0.457748413,20250904113020980,None,2,230.1169891357422,3,5,-2,-3,-2,-1,3,0,1756999820980289936
0,0.47262001,20250904113020995,None,2,232.020751953125,3,-4,-2,0,1,-1,0,2,1756999820995101213
0,0.472725153,20250904113020995,None,2,232.020751953125,-7,-9,1,-2,-1,-1,-4,-3,1756999820995283126
0,0.480258703,20250904113021003,None,2,231.06886291503906,-2,-3,-2,-1,-2,-1,-1,-2,1756999821002633810
0,0.480450153,20250904113021003,None,2,231.06886291503906,1,3,-1,-1,-3,1,3,0,1756999821002907991
0,0.487673759,20250904113021010,None,2,231.5447998046875,0,-3,0,2,0,-1,4,0,1756999821010177373
0,0.48776412,20250904113021010,None,2,231.5447998046875,1,0,-1,-3,1,-1,-2,1,1756999821010360002
0,0.502952099,20250904113021025,None,2,230.83090209960938,0,-7,0,-1,-1,-2,-5,-5,1756999821025342226
0,0.503125429,20250904113021025,None,2,230.83090209960938,-5,4,0,-1,-4,0,1,-4,1756999821025531291
0,0.510348082,20250904113021033,None,2,232.020751953125,2,2,-2,-2,0,-2,-3,-2,1756999821032751798
0,0.510542154,20250904113021033,None,2,232.020751953125,1,-3,-1,1,-1,-2,2,3,1756999821032906293
0,0.517900228,20250904113021040,None,2,230.35494995117188,-4,-4,0,1,0,2,2,-3,1756999821040400028
0,0.518279076,20250904113021041,None,2,230.35494995117188,-1,3,1,-1,0,0,-3,-2,1756999821040595054
0,0.533129454,20250904113021055,None,2,232.2587127685547,2,-2,-2,-3,-2,-2,0,2,1756999821055384635
0,0.533318996,20250904113021056,None,2,232.2587127685547,-2,0,1,0,0,0,-3,-1,1756999821055590867
0,0.540638685,20250904113021063,None,2,230.59292602539062,-1,0,-1,-4,-1,0,0,-5,1756999821062700986
0,0.540871143,20250904113021063,None,2,230.59292602539062,0,-4,0,-2,1,-2,-10,0,1756999821062891006
0,0.547641993,20250904113021070,None,2,232.020751953125,-2,0,-2,-1,2,4,13,3,1756999821070052623
0,0.547820568,20250904113021070,None,2,232.020751953125,-5,-3,-1,1,-4,-1,-1,1,1756999821070182085
0,0.562762737,20250904113021085,None,2,230.35494995117188,-5,-3,-2,-3,3,-1,1,3,1756999821085110902
0,0.5629704,20250904113021085,None,2,230.35494995117188,-2,-5,-1,1,2,0,-1,-1,1756999821085249900
0,0.570227861,20250904113021092,None,2,231.5447998046875,-2,3,1,-2,-1,0,-3,-2,1756999821092599153
0,0.570423841,20250904113021093,None,2,231.5447998046875,0,1,-3,-4,-6,-1,-5,-1,1756999821092721223
0,0.578052282,20250904113021100,None,2,231.06886291503906,-2,-1,-1,2,5,3,0,2,1756999821100096702
0,0.578291416,20250904113021101,None,2,231.06886291503906,0,2,0,-1,-1,-2,-2,1,1756999821100217342
0,0.59303236,20250904113021115,None,2,231.5447998046875,-3,-3,-3,1,0,-1,6,6,1756999821115072250
0,0.593267679,20250904113021116,None,2,231.5447998046875,3,-1,1,3,-1,-2,1,4,1756999821115203380
0,0.600338221,20250904113021123,None,2,231.5447998046875,-3,4,1,0,1,0,-3,-3,1756999821122597455
0,0.600549459,20250904113021123,None,2,231.5447998046875,-2,-10,-5,-1,-3,0,-2,-1,1756999821122743844
0,0.607813358,20250904113021130,None,2,230.83090209960938,-4,-1,0,0,-3,-5,-14,-2,1756999821130057573
0,0.607991695,20250904113021130,None,2,230.83090209960938,1,3,-2,1,-1,6,20,-1,1756999821130182504
0,0.622750044,20250904113021145,None,2,230.35494995117188,-2,2,1,0,-4,-3,2,1,1756999821145059108
0,0.622896433,20250904113021145,None,2,230.35494995117188,-1,-4,-1,2,0,0,-4,-1,1756999821145169973
0,0.630302668,20250904113021153,None,2,232.020751953125,0,0,0,-3,-1,-2,1,-3,1756999821152582645
0,0.630485535,20250904113021153,None,2,232.020751953125,0,1,0,-1,0,-1,-4,3,1756999821152697563
0,0.637870789,20250904113021160,None,2,232.020751953125,-1,-1,-2,-1,0,-1,4,-3,1756999821160111665
0,0.638114691,20250904113021160,None,2,232.020751953125,0,1,0,2,-1,-1,-2,1,1756999821160248041
0,0.652864695,20250904113021175,None,2,231.5447998046875,0,3,0,-2,6,-1,-3,1,1756999821175103425
0,0.653066397,20250904113021175,None,2,231.5447998046875,-1,-1,1,-1,-1,1,-3,-3,1756999821175276279
0,0.660269022,20250904113021183,None,2,230.83090209960938,-4,3,0,0,-3,-1,3,0,1756999821182563304
0,0.66045022,20250904113021183,None,2,230.83090209960938,-1,-1,1,-1,-1,-3,0,2,1756999821182679891
0,0.667819977,20250904113021190,None,2,231.3068389892578,-1,-4,-3,0,-3,-1,0,-1,1756999821190053939
0,0.668013096,20250904113021190,None,2,231.3068389892578,-3,2,-3,-2,-3,-3,0,-4,1756999821190176010
0,0.682803154,20250904113021205,None,2,231.3068389892578,0,-1,0,0,0,-2,0,-2,1756999821205099582
0,0.682982683,20250904113021205,None,2,231.3068389892578,1,-2,-1,2,-2,1,-1,-3,1756999821205241441
0,0.690303326,20250904113021213,None,2,230.59292602539062,-1,0,-1,-3,-1,-4,-14,-3,1756999821212585210
0,0.690487385,20250904113021213,None,2,230.59292602539062,3,-3,-1,-1,0,4,17,2,1756999821212712049
0,0.697704554,20250904113021220,None,2,232.020751953125,1,0,0,2,-4,-5,-2,-2,1756999821220075607
0,0.697868109,20250904113021220,None,2,232.020751953125,-2,2,-1,2,0,0,2,0,1756999821220197439
0,0.712628603,20250904113021235,None,2,232.2587127685547,-1,3,0,0,1,-1,2,1,1756999821235081911
0,0.712747097,20250904113021235,None,2,232.2587127685547,1,1,-3,-2,-3,-1,-4,-3,1756999821235203742
0,0.719998836,20250904113021242,None,2,232.2587127685547,1,5,-1,-2,-2,-1,-4,0,1756999821242533206
0,0.720107317,20250904113021242,None,2,232.2587127685547,0,-6,0,4,5,1,0,-1,1756999821242645263
0,0.727865219,20250904113021250,None,2,230.83090209960938,-5,-8,-1,-4,5,-2,-7,-3,1756999821250032424
0,0.728091478,20250904113021250,None,2,230.83090209960938,3,7,-3,-3,-3,-2,2,3,1756999821250142097
0,0.74260807,20250904113021265,None,2,231.3068389892578,-2,-2,-1,-1,-3,-1,-5,-1,1756999821265087604
0,0.742739916,20250904113021265,None,2,231.3068389892578,0,0,0,0,0,-3,0,2,1756999821265195608
0,0.750588417,20250904113021273,None,2,231.06886291503906,2,3,-1,0,-2,-1,-2,0,1756999821272748947
0,0.750769377,20250904113021273,None,2,231.06886291503906,0,5,-2,0,-1,0,-3,-3,1756999821272929191
0,0.757903337,20250904113021280,None,2,231.06886291503906,0,-5,-3,-1,-2,0,3,-3,1756999821280202150
0,0.758114338,20250904113021280,None,2,231.06886291503906,-4,-3,-1,-3,-4,-4,-10,-1,1756999821280360937
0,0.773233414,20250904113021295,None,2,230.83090209960938,2,4,-3,-4,-3,1,11,1,1756999821295361280
0,0.773550034,20250904113021296,None,2,230.83090209960938,1,2,-2,-2,0,-2,-3,2,1756999821295554637
0,0.780589342,20250904113021303,None,2,231.78277587890625,-2,-7,0,-3,-3,-4,-2,-1,1756999821302780628
0,0.780814409,20250904113021303,None,2,231.78277587890625,-2,-2,-4,-1,0,-1,-2,-2,1756999821302968740
0,0.787796259,20250904113021310,None,2,230.59292602539062,3,3,2,-3,0,-1,-2,0,1756999821310255289
0,0.787928104,20250904113021310,None,2,230.59292602539062,-1,4,-2,-1,-2,0,-1,2,1756999821310447454
0,0.803189993,20250904113021325,None,2,232.020751953125,-3,-5,-1,-1,0,-1,1,1,1756999821325346469
0,0.803573608,20250904113021326,None,2,232.020751953125,-1,-1,-3,-1,-2,-2,-1,-1,1756999821325545072
0,0.810635805,20250904113021333,None,2,230.83090209960938,-1,-2,-2,0,-2,0,-1,-3,1756999821332836627
0,0.810854435,20250904113021333,None,2,230.83090209960938,-1,-7,-1,-2,1,-1,-6,-4,1756999821333039045
0,0.817852497,20250904113021340,None,2,232.020751953125,2,1,-1,-3,-2,-2,3,2,1756999821340317964
0,0.817982435,20250904113021340,None,2,232.020751953125,3,0,-1,1,3,-1,1,-1,1756999821340509414
0,0.832694769,20250904113021355,None,2,231.5447998046875,-2,-2,-3,0,2,0,4,2,1756999821355195760
0,0.832794666,20250904113021355,None,2,231.5447998046875,-2,-2,-1,1,0,-3,-15,-3,1756999821355361938
0,0.840555191,20250904113021363,None,2,231.5447998046875,3,2,0,-1,3,7,18,4,1756999821362823009
0,0.840778351,20250904113021363,None,2,231.5447998046875,2,4,-1,0,0,1,0,-1,1756999821363003492
0,0.848181009,20250904113021370,None,2,231.5447998046875,-2,-12,0,1,1,1,0,-3,1756999821370337486
0,0.848432541,20250904113021371,None,2,231.5447998046875,-1,0,-2,-3,0,-3,-1,1,1756999821370580434
0,0.86307168,20250904113021385,None,2,232.020751953125,2,3,2,0,0,0,0,-3,1756999821385213375
0,0.863289118,20250904113021386,None,2,232.020751953125,-1,-1,-1,1,-5,-5,0,-3,1756999821385404825
0,0.870630264,20250904113021393,None,2,230.59292602539062,0,-1,-1,-2,-1,-3,-1,-3,1756999821392756462
0,0.870880604,20250904113021393,None,2,230.59292602539062,2,2,-4,-3,-3,-1,-1,1,1756999821392920970
0,0.877563238,20250904113021400,None,2,230.59292602539062,1,1,0,-3,-2,1,1,1,1756999821400089740
0,0.877650738,20250904113021400,None,2,230.59292602539062,-3,-4,-1,-3,-3,-5,-3,-1,1756999821400253295
0,0.892714262,20250904113021415,None,2,230.59292602539062,-3,-1,-1,-2,0,-3,1,-2,1756999821415159225
0,0.892842293,20250904113021415,None,2,230.59292602539062,-1,-1,1,1,0,-1,-4,0,1756999821415342330
0,0.899966478,20250904113021422,None,2,232.020751953125,1,2,-2,0,-4,-4,-18,-4,1756999821422533035
0,0.900081634,20250904113021422,None,2,232.020751953125,-1,-2,0,-2,-2,2,22,8,1756999821422659158
0,0.907688856,20250904113021430,None,2,231.06886291503906,1,-4,-1,-1,0,1,0,-1,1756999821430080413
0,0.907869339,20250904113021430,None,2,231.06886291503906,1,1,-3,0,1,0,-5,1,1756999821430248737
0,0.922674179,20250904113021445,None,2,231.5447998046875,-1,0,-1,-1,-2,-3,-2,-5,1756999821445163965
0,0.9228127,20250904113021445,None,2,231.5447998046875,-3,-7,-1,0,3,1,-3,0,1756999821445331096
0,0.930096149,20250904113021452,None,2,231.3068389892578,2,-2,-2,-2,-5,1,-2,3,1756999821452632427
0,0.930186272,20250904113021452,None,2,231.3068389892578,0,0,-2,0,4,-1,1,-1,1756999821452760219
0,0.937604189,20250904113021460,None,2,230.83090209960938,-4,-3,-1,0,-4,0,-1,-2,1756999821460136175
0,0.937702656,20250904113021460,None,2,230.83090209960938,0,-1,0,-4,0,-2,-2,-3,1756999821460269451
0,0.960771561,20250904113021483,None,2,230.59292602539062,1,2,-2,-3,-2,0,2,-2,1756999821483283042
0,0.960880041,20250904113021483,None,2,230.59292602539062,4,1,-6,-1,-2,-1,-1,-3,1756999821483428955
0,0.961476326,20250904113021484,None,2,232.020751953125,-4,0,-1,1,0,1,-1,0,1756999821484042406
0,0.961555243,20250904113021484,None,2,232.020751953125,-1,-1,0,0,-3,-2,-3,-4,1756999821484149217
0,0.967574358,20250904113021490,None,2,232.020751953125,3,-6,-2,-3,-2,-2,0,0,1756999821490120172
0,0.967648745,20250904113021490,None,2,232.020751953125,-2,-2,-4,-1,2,-2,-4,-4,1756999821490259647
0,0.982677698,20250904113021505,None,2,232.020751953125,1,2,0,-3,0,1,1,0,1756999821505148887
0,0.982807159,20250904113021505,None,2,232.020751953125,0,0,-1,-3,0,2,6,2,1756999821505367279
0,0.990560293,20250904113021513,None,2,230.83090209960938,0,6,0,0,1,0,4,-2,1756999821512649536
0,0.990803242,20250904113021513,None,2,230.83090209960938,-3,-3,-4,-3,-4,-4,-4,-2,1756999821512850284
0,0.997908831,20250904113021520,None,2,230.83090209960938,0,-2,0,2,4,0,-3,-3,1756999821520081758
0,0.99813056,20250904113021520,None,2,230.83090209960938,2,-2,-1,0,-2,-1,-2,0,1756999821520256519
0,1.013031721,20250904113021535,None,2,231.3068389892578,-1,-1,0,-2,-2,-1,-2,-3,1756999821535157918
0,1.013272285,20250904113021536,None,2,231.3068389892578,-2,0,-1,0,-1,1,0,0,1756999821535345554
0,1.020393133,20250904113021543,None,2,230.83090209960938,-1,2,-4,-4,-1,-3,0,-1,1756999821542581081
0,1.020644903,20250904113021543,None,2,230.83090209960938,-6,-8,-1,2,0,-2,0,0,1756999821542713403
0,1.027924299,20250904113021550,None,2,232.020751953125,1,0,0,-2,-3,-1,1,0,1756999821550102949
0,1.028166532,20250904113021550,None,2,232.020751953125,0,0,-4,-2,-7,1,1,0,1756999821550243616
0,1.04288435,20250904113021565,None,2,230.83090209960938,3,-1,-1,-1,-2,-3,-6,-4,1756999821565134048
0,1.043142796,20250904113021565,None,2,230.83090209960938,-1,0,-1,-2,0,1,3,-1,1756999821565283060
0,1.0499877930000001,20250904113021572,None,2,232.020751953125,-2,3,-1,0,-2,1,8,-2,1756999821572539329
0,1.050103664,20250904113021572,None,2,232.020751953125,-2,-2,-2,0,-3,-1,-3,0,1756999821572662115
0,1.057672501,20250904113021580,None,2,230.83090209960938,1,-2,-1,3,2,-1,-2,-1,1756999821580095767
0,1.057964563,20250904113021580,None,2,230.83090209960938,-2,-2,1,1,-3,-5,-3,-4,1756999821580252885
0,1.072713613,20250904113021595,None,2,230.83090209960938,-5,-3,-3,-5,-3,-1,-6,-1,1756999821595122575
0,1.072886705,20250904113021595,None,2,230.83090209960938,-1,-5,-2,1,5,2,0,0,1756999821595267772
0,1.0800035000000001,20250904113021602,None,2,230.83090209960938,-1,0,-1,-1,-3,-2,0,-3,1756999821602585315
0,1.08010745,20250904113021602,None,2,230.83090209960938,-2,4,2,-1,-2,0,1,0,1756999821602708578
0,1.08758378,20250904113021610,None,2,231.78277587890625,-3,2,1,0,-2,-1,1,0,1756999821610117912
0,1.0876638889999999,20250904113021610,None,2,231.78277587890625,-3,-12,2,0,0,3,-3,0,1756999821610260725
0,1.10253644,20250904113021625,None,2,231.5447998046875,1,3,-3,-3,-2,2,-2,-2,1756999821625063657
0,1.102749348,20250904113021625,None,2,231.5447998046875,-1,1,2,1,1,-2,-2,1,1756999821625190258
0,1.110004663,20250904113021632,None,2,232.020751953125,-2,-1,-2,-4,0,-2,-7,2,1756999821632500648
0,1.110125065,20250904113021632,None,2,232.020751953125,-2,0,-1,-2,-2,0,-1,-6,1756999821632610559
0,1.117898464,20250904113021640,None,2,232.020751953125,-2,-4,-1,-2,-1,1,5,-2,1756999821640150308
0,1.118053198,20250904113021640,None,2,232.020751953125,0,-1,0,0,1,-1,-1,4,1756999821640261888
0,1.132803917,20250904113021655,None,2,232.2587127685547,3,-3,-1,1,-1,3,-3,-1,1756999821655217647
0,1.132971048,20250904113021655,None,2,232.2587127685547,-1,-1,1,-1,0,-1,-3,-1,1756999821655406236
0,1.140203714,20250904113021662,None,2,230.83090209960938,-1,5,-1,-1,-6,-2,-3,3,1756999821662623643
0,1.140344143,20250904113021663,None,2,230.83090209960938,-1,0,-4,2,1,-2,-4,-2,1756999821662770509
0,1.147650242,20250904113021670,None,2,232.020751953125,-4,-3,-1,-1,-1,1,1,0,1756999821670137882
0,1.147768497,20250904113021670,None,2,232.020751953125,-3,-8,-2,1,1,0,0,0,1756999821670264244
0,1.16281271,20250904113021685,None,2,230.35494995117188,2,2,2,-1,1,-1,-2,-2,1756999821685139179
0,1.16298461,20250904113021685,None,2,230.35494995117188,-1,-6,-1,-1,0,-1,-1,-4,1756999821685461997
0,1.17011857,20250904113021692,None,2,231.78277587890625,0,1,0,3,-4,-1,-2,-3,1756999821692587614
0,1.170225382,20250904113021692,None,2,231.78277587890625,1,-3,0,1,-3,0,4,1,1756999821692710161
0,1.177475929,20250904113021700,None,2,231.06886291503906,1,-2,3,-1,1,-1,2,0,1756999821700024127
0,1.177591562,20250904113021700,None,2,231.06886291503906,-4,1,-2,1,-3,0,-2,1,1756999821700137138
0,1.192606211,20250904113021715,None,2,231.06886291503906,-2,-2,-2,-2,-1,-5,-14,-3,1756999821715080261
0,1.192825794,20250904113021715,None,2,231.5447998046875,-3,0,-2,2,0,5,11,0,1756999821715193748
0,1.200097322,20250904113021722,None,2,231.5447998046875,4,-4,-3,-2,-5,-4,5,2,1756999821722610235
0,1.200419664,20250904113021723,None,2,231.5447998046875,0,2,3,-1,0,0,0,3,1756999821722936868
0,1.208101988,20250904113021730,None,2,230.59292602539062,4,11,1,0,-5,2,0,-1,1756999821730570793
0,1.208210707,20250904113021730,None,2,230.59292602539062,-5,-10,0,1,3,-5,-1,-2,1756999821730789661
0,1.223002672,20250904113021745,None,2,230.35494995117188,-5,-7,-1,0,0,1,-2,2,1756999821745402574
0,1.223156929,20250904113021745,None,2,230.35494995117188,3,2,-2,0,-2,-2,1,-1,1756999821745578050
0,1.2301502229999999,20250904113021752,None,2,230.35494995117188,-2,-5,1,2,-2,0,0,0,1756999821752615928
0,1.230746746,20250904113021753,None,2,232.020751953125,1,3,-1,-1,-5,-2,-4,0,1756999821752835273
0,1.237837315,20250904113021760,None,2,232.020751953125,-3,0,-2,2,-1,-1,0,-3,1756999821760099172
0,1.23803544,20250904113021760,None,2,232.020751953125,0,-3,0,1,2,0,-1,-3,1756999821760239839
0,1.253096104,20250904113021775,None,2,232.020751953125,-4,6,-2,0,-1,-1,-12,-5,1756999821775139093
0,1.2533359530000001,20250904113021776,None,2,232.020751953125,0,-4,-5,1,4,3,18,0,1756999821775256156
0,1.260495186,20250904113021783,None,2,230.83090209960938,-1,-4,-3,-2,-1,-5,-2,-1,1756999821782577037
0,1.260805845,20250904113021783,None,2,230.83090209960938,-3,-2,-4,-2,-2,-2,-3,-3,1756999821782684326
0,1.2680628299999999,20250904113021790,None,2,231.5447998046875,-1,1,-4,1,-2,-2,-6,-4,1756999821790122747
0,1.268280268,20250904113021791,None,2,231.5447998046875,1,0,0,0,-6,-1,3,3,1756999821790254592
0,1.283247471,20250904113021806,None,2,230.83090209960938,1,-2,2,1,6,-1,0,-3,1756999821805090904
0,1.283491373,20250904113021806,None,2,230.83090209960938,-3,-4,1,0,3,-1,-1,-5,1756999821805293798
0,1.290583849,20250904113021813,None,2,230.83090209960938,-1,-3,1,-2,-2,-1,-2,-2,1756999821812574863
0,1.290802479,20250904113021813,None,2,230.83090209960938,-1,3,-1,-2,0,0,-3,-1,1756999821812704086
0,1.29801178,20250904113021820,None,2,231.78277587890625,1,2,-3,1,-2,1,-1,1,1756999821820071935
0,1.298228741,20250904113021820,None,2,231.78277587890625,-2,1,0,2,0,0,-2,-4,1756999821820186376
0,1.312935352,20250904113021835,None,2,232.020751953125,1,-4,-1,1,1,-1,-2,-2,1756999821835094451
0,1.313114643,20250904113021835,None,2,232.020751953125,0,-6,-1,-1,-3,-4,-7,0,1756999821835207462
0,1.3205347060000001,20250904113021843,None,2,230.59292602539062,1,-3,-1,-3,-3,2,13,-1,1756999821842577934
0,1.32075882,20250904113021843,None,2,230.59292602539062,-1,3,0,1,1,0,0,0,1756999821842689752
0,1.327982187,20250904113021850,None,2,230.59292602539062,1,9,-3,0,0,1,-1,1,1756999821850080251
0,1.328184366,20250904113021850,None,2,230.59292602539062,-5,-14,0,-1,-3,-2,-5,0,1756999821850184202
0,1.343008757,20250904113021865,None,2,230.83090209960938,-2,-2,-4,1,1,3,0,0,1756999821865095138
0,1.343225002,20250904113021865,None,2,230.83090209960938,-3,5,1,-2,-4,-2,-1,-1,1756999821865220785
0,1.350455999,20250904113021873,None,2,232.020751953125,0,2,-1,1,0,-1,-3,1,1756999821872581005
0,1.350705147,20250904113021873,None,2,232.020751953125,0,0,0,0,0,-1,-10,-4,1756999821872691392
0,1.357991457,20250904113021880,None,2,231.5447998046875,-3,4,-1,-1,-1,3,5,2,1756999821880063056
0,1.358208656,20250904113021880,None,2,231.5447998046875,2,-2,2,-2,-2,-3,-2,-1,1756999821880186319
0,1.373033524,20250904113021895,None,2,231.3068389892578,-2,-1,-2,2,0,-2,-2,0,1756999821895086765
0,1.373226881,20250904113021895,None,2,231.3068389892578,0,2,-2,-4,-1,0,4,-1,1756999821895202159
0,1.380552053,20250904113021903,None,2,231.78277587890625,-5,-4,1,1,1,2,-1,-4,1756999821902595996
0,1.380788565,20250904113021903,None,2,231.78277587890625,-3,0,-1,0,0,-4,-8,-3,1756999821902708768
0,1.395368099,20250904113021918,None,2,232.2587127685547,0,-5,0,0,-2,3,11,4,1756999821917677164
0,1.395719051,20250904113021918,None,2,232.2587127685547,-1,-2,1,0,-4,0,-3,-1,1756999821917806863
0,1.402768373,20250904113021925,None,2,232.2587127685547,1,4,2,-4,-2,-4,-1,0,1756999821925086259
0,1.402970791,20250904113021925,None,2,232.2587127685547,-1,1,-1,-4,-1,-5,0,-1,1756999821925202131
0,1.41024971,20250904113021933,None,2,230.59292602539062,-3,-6,1,1,-1,-1,-5,-2,1756999821932637214
0,1.4104793070000001,20250904113021933,None,2,230.59292602539062,1,-4,-2,-4,-2,-1,0,-2,1756999821932756662
0,1.425632477,20250904113021948,None,2,230.59292602539062,-1,4,-1,-2,1,-1,1,1,1756999821947596311
0,1.425855637,20250904113021948,None,2,230.59292602539062,1,-2,-1,1,0,1,-1,1,1756999821947739839
0,1.432689905,20250904113021955,None,2,231.78277587890625,2,0,-2,-2,-2,-4,-4,-8,1756999821955010890
0,1.43282342,20250904113021955,None,2,231.78277587890625,0,-6,0,-2,0,3,4,1,1756999821955130577
0,1.440528154,20250904113021963,None,2,231.78277587890625,-1,-2,0,-3,0,-1,-3,-4,1756999821962581396
0,1.440736532,20250904113021963,None,2,231.78277587890625,-5,2,-1,-2,-2,0,9,0,1756999821962702512
0,1.4553966520000001,20250904113021978,None,2,231.06886291503906,1,-1,-1,0,0,-2,-2,-3,1756999821977609872
0,1.455667973,20250904113021978,None,2,231.06886291503906,-1,0,-2,-1,-1,-6,-11,-5,1756999821977728366
0,1.462917328,20250904113021985,None,2,232.020751953125,0,0,0,1,-1,3,10,1,1756999821985088109
0,1.463109732,20250904113021985,None,2,232.020751953125,0,3,2,-2,0,-2,0,-5,1756999821985201835
0,1.470088243,20250904113021992,None,2,230.59292602539062,-3,-2,-2,3,-1,-1,-1,-1,1756999821992590665
0,1.470202446,20250904113021992,None,2,230.59292602539062,1,-2,-3,1,1,3,-3,-1,1756999821992740631
0,1.485052824,20250904113022007,None,2,232.020751953125,-2,-1,-1,-3,-1,-5,-1,1,1756999822007506370
0,1.48519516,20250904113022007,None,2,232.020751953125,-3,0,0,-3,-3,1,-3,-4,1756999822007625818
0,1.492615461,20250904113022015,None,2,230.35494995117188,-3,2,-3,3,6,1,-2,0,1756999822015119075
0,1.492716789,20250904113022015,None,2,230.35494995117188,-1,-4,-2,2,1,0,3,1,1756999822015263319
0,1.500111103,20250904113022022,None,2,232.2587127685547,-2,-1,-3,0,-2,1,4,1,1756999822022578001
0,1.500260353,20250904113022023,None,2,232.2587127685547,0,1,-1,-2,-2,2,-2,-2,1756999822022691726
0,1.5151159760000001,20250904113022037,None,2,231.78277587890625,-3,-1,0,2,0,1,-2,-3,1756999822037595748
0,1.515231848,20250904113022037,None,2,231.78277587890625,-1,4,0,1,-1,-2,-1,1,1756999822037756919
0,1.522583008,20250904113022045,None,2,231.78277587890625,-1,-2,1,0,0,-1,-3,-1,1756999822045107126
0,1.52268815,20250904113022045,None,2,231.78277587890625,-1,0,-3,1,-1,1,6,-2,1756999822045247316
0,1.530406237,20250904113022053,None,2,231.06886291503906,1,-5,1,-1,-1,-2,6,-1,1756999822052665710
0,1.5306077,20250904113022053,None,2,231.06886291503906,3,2,1,-1,-1,-2,-2,-1,1756999822052854537
0,1.545172214,20250904113022067,None,2,232.020751953125,-2,2,1,0,-1,-2,-4,-1,1756999822067635059
0,1.545317411,20250904113022068,None,2,232.020751953125,-6,-3,-7,0,-2,-2,-3,0,1756999822067835807
0,1.552607536,20250904113022075,None,2,230.83090209960938,0,-1,0,0,1,-2,-4,-1,1756999822075098991
0,1.552740097,20250904113022075,None,2,230.83090209960938,-1,2,-1,-4,-5,1,1,-1,1756999822075259923
0,1.5677428249999998,20250904113022090,None,2,232.020751953125,1,-3,0,-2,0,2,0,1,1756999822090120077
0,1.567926645,20250904113022090,None,2,232.020751953125,-4,-4,-1,-3,1,-3,-2,-3,1756999822090310096
0,1.575143814,20250904113022097,None,2,230.59292602539062,-1,-6,-4,-2,-2,0,-2,-3,1756999822097634077
0,1.575259924,20250904113022098,None,2,230.59292602539062,-2,3,-3,-2,-3,2,0,-1,1756999822097796916
0,1.582620621,20250904113022105,None,2,232.020751953125,-1,2,1,0,-1,-2,-2,-2,1756999822105115652
0,1.582728147,20250904113022105,None,2,232.020751953125,-3,-3,-3,-2,-1,-1,0,-1,1756999822105277776
0,1.590036392,20250904113022112,None,2,230.59292602539062,0,-3,0,-1,0,-3,-16,-1,1756999822112552881
0,1.590135574,20250904113022112,None,2,230.59292602539062,2,2,1,-4,0,4,16,2,1756999822112674713
0,1.6051046850000001,20250904113022127,None,2,232.020751953125,-4,1,0,0,0,-2,1,-1,1756999822127580881
0,1.6052134040000001,20250904113022127,None,2,232.020751953125,0,-3,-3,0,0,-3,3,-1,1756999822127721309
0,1.6125626560000001,20250904113022135,None,2,231.06886291503906,-4,-2,0,-1,1,-3,-5,-2,1756999822135077476
0,1.612668514,20250904113022135,None,2,231.06886291503906,-1,-3,1,-1,-1,1,-2,-1,1756999822135200977
0,1.627622366,20250904113022150,None,2,232.020751953125,1,-1,0,-3,-1,-2,-3,1,1756999822150123357
0,1.627753258,20250904113022150,None,2,232.020751953125,-1,-2,-2,1,-3,-4,1,1,1756999822150264024
0,1.635084629,20250904113022157,None,2,232.020751953125,1,2,-1,2,4,-1,-3,-1,1756999822157605171
0,1.635211706,20250904113022157,None,2,232.020751953125,-2,1,-1,0,-1,-2,-3,-1,1756999822157743692
0,1.642594099,20250904113022165,None,2,231.06886291503906,1,-1,2,-3,-1,-2,0,0,1756999822165113687
0,1.6426887510000001,20250904113022165,None,2,231.06886291503906,-2,-3,1,-3,0,2,0,-1,1756999822165251016
0,1.650069952,20250904113022172,None,2,232.2587127685547,-2,1,1,-1,2,-4,-2,-2,1756999822172539472
0,1.650211573,20250904113022172,None,2,232.2587127685547,1,0,0,-3,0,-5,-10,0,1756999822172652482
0,1.665132046,20250904113022187,None,2,232.2587127685547,-6,-3,-1,-2,1,4,18,-2,1756999822187614202
0,1.6652388569999999,20250904113022187,None,2,232.2587127685547,1,-3,-4,2,-1,-1,-3,1,1756999822187740087
0,1.6723413470000001,20250904113022195,None,2,232.2587127685547,1,3,-1,-2,-1,-2,-1,-2,1756999822194916009
0,1.672413111,20250904113022195,None,2,232.2587127685547,-2,4,-1,-2,0,0,-1,0,1756999822195015192
0,1.680025578,20250904113022202,None,2,230.59292602539062,-7,-8,2,-1,0,-2,-5,-1,1756999822202576398
0,1.680105686,20250904113022202,None,2,230.59292602539062,-1,-2,-5,-5,-5,-3,2,2,1756999822202687740
0,1.6951549049999999,20250904113022217,None,2,231.3068389892578,3,5,0,-1,1,2,1,2,1756999822217611074
0,1.695296526,20250904113022218,None,2,231.3068389892578,-2,-6,-1,0,-3,0,-4,-2,1756999822217739820
0,1.7026031019999999,20250904113022225,None,2,231.5447998046875,-2,-2,-1,1,0,-1,6,1,1756999822225105524
0,1.7027101519999999,20250904113022225,None,2,231.5447998046875,-1,-4,1,0,-2,1,1,4,1756999822225249052
0,1.710044861,20250904113022232,None,2,231.78277587890625,-1,0,0,-1,1,0,-1,-1,1756999822232593774
0,1.7101850509999998,20250904113022232,None,2,231.78277587890625,-4,-2,0,-2,-2,-1,-1,-1,1756999822232709884
0,1.725613594,20250904113022248,None,2,230.83090209960938,5,-3,1,2,0,-3,-7,1,1756999822248023748
0,1.725823879,20250904113022248,None,2,230.83090209960938,3,0,-1,-4,-2,3,9,2,1756999822248344659
0,1.732589245,20250904113022255,None,2,232.020751953125,-3,-1,-1,1,-2,-3,1,-4,1756999822255101919
0,1.732825756,20250904113022255,None,2,232.020751953125,-2,2,2,-1,-1,-3,-2,-1,1756999822255329132
0,1.740189314,20250904113022262,None,2,230.59292602539062,-3,-4,1,-1,-2,-2,-1,0,1756999822262661218
0,1.740299702,20250904113022263,None,2,230.59292602539062,-1,-1,2,-2,-1,-2,-4,-1,1756999822262811899
0,1.75491333,20250904113022277,None,2,230.83090209960938,-2,-2,-2,0,1,0,1,-1,1756999822277466535
0,1.754997015,20250904113022277,None,2,230.83090209960938,-1,0,-1,3,-2,-1,-4,0,1756999822277570724
0,1.762490511,20250904113022285,None,2,230.83090209960938,0,-2,-2,-1,-2,1,0,-1,1756999822285049676
0,1.7625691890000001,20250904113022285,None,2,230.83090209960938,1,5,0,0,-2,0,-1,1,1756999822285165071
0,1.769979238,20250904113022292,None,2,232.020751953125,-3,-4,-4,-1,-1,1,-3,-2,1756999822292560338
0,1.7700521949999999,20250904113022292,None,2,232.020751953125,-2,-3,-1,-2,-2,0,-2,-2,1756999822292676925
0,1.785014152,20250904113022307,None,2,231.5447998046875,-4,-3,-1,-1,0,-3,-4,0,1756999822307526111
0,1.7851026060000001,20250904113022307,None,2,231.5447998046875,1,4,-3,-2,1,-2,-1,-4,1756999822307648420
0,1.7924377919999999,20250904113022315,None,2,231.3068389892578,-1,2,-1,0,-3,-1,3,0,1756999822315006494
0,1.792525291,20250904113022315,None,2,231.3068389892578,-2,-2,1,-2,-2,1,-6,1,1756999822315111398
0,1.800070286,20250904113022322,None,2,231.5447998046875,-7,-3,-2,0,-4,1,6,0,1756999822322583198
0,1.800162077,20250904113022322,None,2,231.5447998046875,1,3,3,0,0,-2,-3,0,1756999822322711229
0,1.815004826,20250904113022337,None,2,231.78277587890625,1,-4,0,0,2,-2,-4,-2,1756999822337546348
0,1.815097809,20250904113022337,None,2,231.78277587890625,-1,1,-4,-4,-1,-3,-5,1,1756999822337664842
0,1.822529078,20250904113022345,None,2,230.59292602539062,1,-3,-2,-1,-1,0,-6,-1,1756999822345070362
0,1.822594404,20250904113022345,None,2,230.59292602539062,-1,1,-1,0,-1,2,3,2,1756999822345192670
0,1.8300065989999998,20250904113022352,None,2,232.2587127685547,-3,-4,-3,-4,-4,-1,-3,-3,1756999822352555751
0,1.830081463,20250904113022352,None,2,232.2587127685547,2,1,-3,-3,-3,-2,3,3,1756999822352681875
0,1.845041037,20250904113022367,None,2,230.59292602539062,1,-1,0,-1,2,-1,-2,1,1756999822367591619
0,1.8451659679999999,20250904113022367,None,2,230.59292602539062,2,0,0,-1,3,1,-1,-2,1756999822367731809
0,1.852554798,20250904113022375,None,2,232.2587127685547,0,-4,0,-2,0,0,-2,-3,1756999822375098705
0,1.852618694,20250904113022375,None,2,232.2587127685547,-1,1,0,-1,0,5,0,1,1756999822375199556
0,1.860201359,20250904113022382,None,2,230.35494995117188,-1,-7,-1,-1,0,-1,-3,1,1756999822382681608
0,1.860312223,20250904113022383,None,2,230.35494995117188,-1,-2,-2,-1,-3,3,-3,-3,1756999822382845640
0,1.875467539,20250904113022398,None,2,231.3068389892578,-2,-3,-1,1,-2,2,0,-4,1756999822397964715
0,1.8755869870000001,20250904113022398,None,2,231.3068389892578,-2,-7,-2,-3,-1,1,3,2,1756999822398162841
0,1.883034229,20250904113022405,None,2,231.3068389892578,1,1,0,-4,0,-1,-4,-2,1756999822405543088
0,1.883119345,20250904113022405,None,2,231.3068389892578,4,2,-1,-1,-3,-2,-4,-1,1756999822405711650
0,1.890090466,20250904113022412,None,2,230.83090209960938,0,-1,0,-1,0,0,0,1,1756999822412647247
0,1.890162706,20250904113022412,None,2,230.83090209960938,1,0,2,-1,1,-1,-1,0,1756999822412781238
0,1.9050936699999999,20250904113022427,None,2,230.83090209960938,2,8,-1,1,-1,-1,-4,2,1756999822427609443
0,1.905195951,20250904113022427,None,2,230.83090209960938,-3,-9,-4,-2,-2,-3,-1,-2,1756999822427742481
0,1.9127118589999998,20250904113022435,None,2,232.020751953125,-4,-3,0,2,2,6,8,2,1756999822435142040
0,1.912779808,20250904113022435,None,2,232.020751953125,-2,4,-3,-3,-1,-3,0,-4,1756999822435254096
0,1.920078754,20250904113022442,None,2,232.020751953125,0,4,1,-3,1,-3,0,1,1756999822442604541
0,1.9201498030000002,20250904113022442,None,2,232.020751953125,3,-3,0,-3,-1,-1,-4,0,1756999822442728757
0,1.935217619,20250904113022457,None,2,232.2587127685547,-3,0,0,-1,2,-1,0,-1,1756999822457770824
0,1.935307503,20250904113022458,None,2,232.2587127685547,2,5,1,-3,-3,-2,-7,0,1756999822457923650
0,1.942799807,20250904113022465,None,2,230.59292602539062,-2,-3,-2,0,0,-1,2,1,1756999822465248346
0,1.9430000779999999,20250904113022465,None,2,230.59292602539062,0,-5,-4,0,-1,-1,5,-2,1756999822465433597
0,1.957704782,20250904113022480,None,2,231.78277587890625,0,5,0,0,-1,-2,-3,-2,1756999822480191230
0,1.957853079,20250904113022480,None,2,231.78277587890625,0,1,1,-1,-2,-1,-4,1,1756999822480357646
0,1.964990377,20250904113022487,None,2,231.06886291503906,-1,-1,2,-2,-2,-2,1,-4,1756999822487519264
0,1.965096951,20250904113022487,None,2,231.06886291503906,-1,1,0,-1,-1,0,3,-1,1756999822487646818
0,1.972574472,20250904113022495,None,2,231.3068389892578,-3,0,-2,-1,0,1,0,-1,1756999822495068073
0,1.972800493,20250904113022495,None,2,231.3068389892578,1,0,-1,-3,1,-1,-1,0,1756999822495207071
0,1.9801230429999999,20250904113022502,None,2,231.78277587890625,-2,-1,-2,-2,-2,-1,-3,-2,1756999822502615451
0,1.9802436829999999,20250904113022503,None,2,231.78277587890625,-2,-4,1,-1,-3,-2,-1,0,1756999822502754926
0,1.995149612,20250904113022517,None,2,232.2587127685547,0,3,-1,2,0,-2,-1,-1,1756999822517617702
0,1.9953017229999999,20250904113022518,None,2,232.2587127685547,2,1,0,2,-1,-2,-1,-2,1756999822517776489
0,2.002709866,20250904113022525,None,2,232.2587127685547,-2,-4,-1,-2,-1,-3,-2,1,1756999822525093793
0,2.002969503,20250904113022525,None,2,232.2587127685547,1,0,0,2,1,-3,-7,0,1756999822525223493
0,2.010349989,20250904113022533,None,2,230.35494995117188,-2,-5,-2,-3,-1,0,11,0,1756999822532854557
0,2.010483742,20250904113022533,None,2,230.35494995117188,-2,-1,1,-1,-2,-1,2,0,1756999822533062696
0,2.025417089,20250904113022548,None,2,230.83090209960938,-1,-4,-1,-1,0,0,-3,-3,1756999822547760009
0,2.025690079,20250904113022548,None,2,230.83090209960938,-1,6,0,-2,2,-2,-5,0,1756999822548012018
0,2.03281641,20250904113022555,None,2,231.78277587890625,0,-1,0,-2,-5,-2,3,0,1756999822555300951
0,2.03294754,20250904113022555,None,2,231.78277587890625,2,-1,-1,0,8,-1,-2,0,1756999822555464744
0,2.040180922,20250904113022562,None,2,231.78277587890625,-2,-7,0,-1,-1,1,-2,-1,1756999822562683343
0,2.040286541,20250904113022563,None,2,231.78277587890625,-2,-2,-2,-2,-1,-3,5,5,1756999822562799692
0,2.055605888,20250904113022578,None,2,231.5447998046875,0,5,0,0,-2,-2,-3,0,1756999822577985286
0,2.055778503,20250904113022578,None,2,231.5447998046875,-3,-1,-2,0,0,-2,-4,-2,1756999822578197002
0,2.062761068,20250904113022585,None,2,231.78277587890625,1,-3,1,-4,1,1,0,-2,1756999822585256338
0,2.06286478,20250904113022585,None,2,231.78277587890625,-2,-4,-1,2,0,2,-2,-1,1756999822585432767
0,2.070206881,20250904113022592,None,2,231.06886291503906,-1,0,-2,0,0,-3,-17,-6,1756999822592726945
0,2.070291758,20250904113022593,None,2,231.06886291503906,-1,0,1,-2,1,6,19,1,1756999822592878818
0,2.08551383,20250904113022608,None,2,232.020751953125,-2,1,-1,-3,-2,-3,-2,-8,1756999822607961893
0,2.085615396,20250904113022608,None,2,232.020751953125,-1,2,0,-1,-2,0,-1,1,1756999822608166933
0,2.09301424,20250904113022615,None,2,230.83090209960938,-2,0,3,-5,-2,1,0,1,1756999822615504264
0,2.093147516,20250904113022615,None,2,230.83090209960938,2,0,-2,-4,-2,-2,-1,0,1756999822615709781
0,2.100608349,20250904113022623,None,2,232.2587127685547,0,1,0,-4,3,-3,-3,-2,1756999822623073339
0,2.100729227,20250904113022623,None,2,232.2587127685547,0,0,-1,-1,-1,4,-1,-4,1756999822623300790
0,2.115438223,20250904113022638,None,2,232.020751953125,2,-3,1,0,0,-1,-1,-1,1756999822637901067
0,2.115570784,20250904113022638,None,2,232.020751953125,-5,-3,-1,3,1,-1,1,-3,1756999822638069391
0,2.122869492,20250904113022645,None,2,231.06886291503906,-1,2,-1,0,0,3,-2,2,1756999822645384788
0,2.12299037,20250904113022645,None,2,231.06886291503906,0,4,-1,1,-3,-1,3,-2,1756999822645581007
0,2.130525589,20250904113022653,None,2,231.06886291503906,-2,-1,0,-4,-1,-1,5,-1,1756999822652926206
0,2.13070178,20250904113022653,None,2,231.06886291503906,-2,-6,0,-3,1,0,3,2,1756999822653138160
0,2.145163059,20250904113022667,None,2,231.78277587890625,3,-2,0,0,0,0,-2,0,1756999822667618274
0,2.14529705,20250904113022668,None,2,231.78277587890625,0,5,-1,1,-1,-1,-6,-3,1756999822667796373
0,2.152653456,20250904113022675,None,2,231.06886291503906,-2,-2,-2,-3,-2,0,11,1,1756999822675148487
0,2.152742624,20250904113022675,None,2,231.06886291503906,-3,-8,1,2,2,1,-4,-4,1756999822675347566
0,2.159912586,20250904113022682,None,2,231.78277587890625,-1,3,-1,-2,-5,-1,-6,-1,1756999822682497739
0,2.160005093,20250904113022682,None,2,231.78277587890625,0,-1,-1,1,1,-4,-2,-1,1756999822682616949
0,2.175128698,20250904113022697,None,2,230.59292602539062,-5,-4,0,0,-1,1,0,-1,1756999822697613000
0,2.175270796,20250904113022698,None,2,230.59292602539062,-1,0,0,0,0,-5,-1,-1,1756999822697751522
0,2.182616949,20250904113022705,None,2,232.020751953125,-3,1,1,0,0,0,1,0,1756999822705106973
0,2.182731867,20250904113022705,None,2,232.020751953125,-1,-5,-1,-4,-3,-2,-4,-4,1756999822705257892
0,2.190039635,20250904113022712,None,2,230.83090209960938,0,3,-1,-2,0,0,1,0,1756999822712581157
0,2.190228224,20250904113022712,None,2,230.83090209960938,-2,0,-1,-3,-1,-1,0,-1,1756999822712698221
0,2.204980373,20250904113022727,None,2,232.2587127685547,0,-1,0,-1,-1,2,1,-1,1756999822727487802
0,2.205123425,20250904113022727,None,2,232.2587127685547,2,-1,-1,-2,-3,-2,-2,-2,1756999822727611064
0,2.212450027,20250904113022735,None,2,231.06886291503906,1,-3,-3,0,-3,-5,-6,-1,1756999822734984397
0,2.212561369,20250904113022735,None,2,231.06886291503906,-4,-1,0,0,1,2,9,-2,1756999822735099315
0,2.220010281,20250904113022742,None,2,231.5447998046875,2,-1,-1,0,0,2,3,1,1756999822742518424
0,2.220158577,20250904113022742,None,2,231.5447998046875,1,-3,-5,-3,-2,0,1,2,1756999822742717027
0,2.235126257,20250904113022757,None,2,231.3068389892578,-1,-3,0,-2,-2,-1,-2,-1,1756999822757629394
0,2.235277414,20250904113022758,None,2,231.3068389892578,1,3,1,1,3,2,-2,0,1756999822757773160
0,2.242591143,20250904113022765,None,2,231.3068389892578,1,1,1,2,1,2,0,1,1756999822765082359
0,2.242715597,20250904113022765,None,2,231.3068389892578,0,-4,0,1,0,0,-4,-5,1756999822765205621
0,2.249956369,20250904113022772,None,2,231.78277587890625,1,1,-1,-3,-2,-1,-1,-3,1756999822772548198
0,2.250040054,20250904113022772,None,2,231.78277587890625,-2,-1,0,-1,0,-1,2,-2,1756999822772648096
0,2.264937162,20250904113022787,None,2,232.49668884277344,0,5,0,0,-3,-1,-2,-5,1756999822787514925
0,2.265038013,20250904113022787,None,2,232.49668884277344,-1,-8,0,1,-1,-3,-7,-1,1756999822787626028
0,2.272549391,20250904113022795,None,2,230.59292602539062,-3,1,-3,-1,-2,-3,2,-3,1756999822795057058
0,2.272657394,20250904113022795,None,2,230.59292602539062,1,-5,-2,0,-2,-7,-13,1,1756999822795183658
0,2.279893875,20250904113022802,None,2,232.020751953125,1,-1,1,2,-1,8,19,-2,1756999822802489757
0,2.279985905,20250904113022802,None,2,232.020751953125,-3,3,-2,2,1,-1,-3,-1,1756999822802598237
0,2.295175076,20250904113022817,None,2,230.83090209960938,-1,-7,-1,0,0,0,-4,4,1756999822817613363
0,2.295368671,20250904113022818,None,2,230.83090209960938,-3,-5,-3,-1,-1,-1,-5,-1,1756999822817751646
0,2.302604198,20250904113022825,None,2,231.78277587890625,0,-3,-3,-1,-5,-2,-2,1,1756999822825118303
0,2.302698851,20250904113022825,None,2,231.78277587890625,0,1,0,0,4,-1,0,2,1756999822825260639
0,2.310091495,20250904113022832,None,2,231.06886291503906,-1,1,-4,-3,-1,-1,1,-2,1756999822832607984
0,2.310210228,20250904113022832,None,2,231.06886291503906,1,-4,-1,0,-1,-4,-5,-4,1756999822832745552
0,2.325125933,20250904113022847,None,2,231.3068389892578,-3,-5,-1,0,1,-2,0,0,1756999822847634792
0,2.325315952,20250904113022848,None,2,231.3068389892578,0,-2,-2,1,1,1,1,0,1756999822847804307
0,2.3324756620000002,20250904113022855,None,2,232.020751953125,3,3,-2,0,0,-2,-2,0,1756999822855036973
0,2.332600594,20250904113022855,None,2,232.020751953125,-2,1,0,0,-2,-2,-4,-4,1756999822855153560
0,2.347658634,20250904113022870,None,2,231.78277587890625,-2,-4,-2,-1,-1,1,1,1,1756999822870121955
0,2.347756147,20250904113022870,None,2,231.78277587890625,-2,1,2,-3,1,1,-4,-1,1756999822870253801
0,2.355023622,20250904113022877,None,2,230.59292602539062,-2,-3,-2,0,1,-1,-1,-3,1756999822877582311
0,2.355097055,20250904113022877,None,2,230.59292602539062,2,-2,-2,0,-2,1,4,-3,1756999822877721071
0,2.362554312,20250904113022885,None,2,230.59292602539062,-2,3,-1,1,-4,-2,2,-1,1756999822885057210
0,2.362659693,20250904113022885,None,2,230.59292602539062,-1,-1,-3,-5,-2,-4,-3,1,1756999822885173320
0,2.377582312,20250904113022900,None,2,230.59292602539062,0,-1,1,1,0,0,-2,-2,1756999822900104522
0,2.377694845,20250904113022900,None,2,230.59292602539062,2,3,-1,2,-1,2,-7,-2,1756999822900258064
0,2.385178328,20250904113022907,None,2,231.78277587890625,-3,-13,0,-1,-5,-1,4,-1,1756999822907647132
0,2.385293484,20250904113022908,None,2,231.78277587890625,-2,2,-3,0,-1,-2,-3,0,1756999822907839298
0,2.400177717,20250904113022922,None,2,231.06886291503906,1,-1,-1,0,1,-2,2,1,1756999822922638177
0,2.400336504,20250904113022923,None,2,231.06886291503906,-1,-3,-2,0,1,-1,-3,-1,1756999822922833442
0,2.4075310229999998,20250904113022930,None,2,231.3068389892578,-1,7,-2,-1,0,-2,-16,0,1756999822930050373
0,2.408124447,20250904113022930,None,2,231.3068389892578,-3,-10,-3,0,0,7,16,1,1756999822930215120
0,2.415422201,20250904113022938,None,2,231.78277587890625,1,1,0,0,2,1,1,-2,1756999822937888145
0,2.415540218,20250904113022938,None,2,231.78277587890625,-3,2,-3,-2,-3,0,0,2,1756999822938119649
0,2.4228439330000002,20250904113022945,None,2,230.83090209960938,0,-3,-1,0,-3,0,-2,-2,1756999822945337057
0,2.422924757,20250904113022945,None,2,230.83090209960938,3,-3,-3,-2,0,0,0,2,1756999822945509672
0,2.438039541,20250904113022960,None,2,232.020751953125,-1,-3,0,-3,1,-2,-4,-2,1756999822960479021
0,2.438154936,20250904113022960,None,2,232.020751953125,-3,-3,1,-3,-8,-2,-8,-5,1756999822960728883
0,2.445580006,20250904113022968,None,2,230.35494995117188,1,2,0,4,5,2,4,1,1756999822968024492
0,2.445838451,20250904113022968,None,2,230.35494995117188,1,-3,-1,-3,-1,0,-2,-1,1756999822968349933
0,2.452532053,20250904113022975,None,2,232.020751953125,-1,0,0,-4,-2,-2,-3,-2,1756999822975056409
0,2.452762842,20250904113022975,None,2,232.020751953125,-5,2,-4,3,-1,0,0,-1,1756999822975210666
0,2.467682838,20250904113022990,None,2,232.020751953125,-3,-1,-1,-2,-1,-4,0,-3,1756999822990078210
0,2.467841387,20250904113022990,None,2,232.020751953125,0,-2,0,-4,0,1,-1,-3,1756999822990211725
0,2.475020885,20250904113022997,None,2,230.83090209960938,-4,-6,-4,-3,-4,-4,-13,-2,1756999822997533321
0,2.475161314,20250904113022997,None,2,230.83090209960938,-7,-3,0,-4,-2,4,13,-2,1756999822997647047
0,2.482539177,20250904113023005,None,2,230.83090209960938,3,3,0,-2,-4,-1,-1,0,1756999823005051136
0,2.482663393,20250904113023005,None,2,230.83090209960938,6,7,2,1,0,1,-3,0,1756999823005170583
0,2.497564554,20250904113023020,None,2,231.3068389892578,0,-11,1,1,0,0,-1,2,1756999823020018577
0,2.497701168,20250904113023020,None,2,231.3068389892578,-4,-6,-3,1,-2,-1,2,-3,1756999823020169496
0,2.513352156,20250904113023036,None,2,232.020751953125,-2,1,-3,-3,-1,-1,-4,-1,1756999823035750865
0,2.513485193,20250904113023036,None,2,232.020751953125,0,2,2,-2,3,0,-2,-3,1756999823035837173
0,2.513949871,20250904113023036,None,2,232.020751953125,1,-2,-4,-1,-2,-5,-2,1,1756999823036518335
0,2.51406002,20250904113023036,None,2,232.020751953125,-5,1,-2,-1,-1,-2,-4,-5,1756999823036635398
0,2.527607918,20250904113023050,None,2,230.59292602539062,-1,0,0,-3,1,0,5,3,1756999823050050020
0,2.527776957,20250904113023050,None,2,230.59292602539062,1,0,-1,1,-1,2,-2,-1,1756999823050189971
0,2.535047293,20250904113023057,None,2,232.2587127685547,-3,-4,1,-1,-1,-1,0,-1,1756999823057557106
0,2.535163164,20250904113023057,None,2,232.2587127685547,-2,0,-3,2,-2,0,1,-2,1756999823057687520
0,2.542512894,20250904113023065,None,2,230.59292602539062,-1,1,1,0,-2,0,-1,-1,1756999823065048694
0,2.5426054000000002,20250904113023065,None,2,230.59292602539062,0,1,1,2,-3,-1,-9,-1,1756999823065176486
0,2.557651043,20250904113023080,None,2,231.06886291503906,-1,-3,-4,-3,1,3,8,1,1756999823080140113
0,2.557784319,20250904113023080,None,2,231.06886291503906,-2,0,-2,1,1,-2,0,-2,1756999823080262422
0,2.5650997159999998,20250904113023087,None,2,231.06886291503906,-3,-3,-3,-3,-3,-3,-4,-7,1756999823087625980
0,2.565204859,20250904113023087,None,2,231.06886291503906,0,-2,0,-2,-1,0,0,-1,1756999823087754726
0,2.572585583,20250904113023095,None,2,231.5447998046875,0,4,0,-2,-1,0,-3,-4,1756999823095084905
0,2.572685003,20250904113023095,None,2,231.5447998046875,-1,-5,-1,-1,-3,-5,-1,-1,1756999823095210790
0,2.58759284,20250904113023110,None,2,230.83090209960938,-3,-7,0,-2,-3,-3,0,1,1756999823110096693
0,2.5877158639999998,20250904113023110,None,2,230.83090209960938,-2,-6,0,-1,-6,0,-1,2,1756999823110245466
0,2.595042229,20250904113023117,None,2,232.020751953125,-1,8,3,0,-2,-4,-3,-1,1756999823117580652
0,2.595132589,20250904113023117,None,2,232.020751953125,2,2,-2,0,-2,-1,-5,-4,1756999823117731332
0,2.602728844,20250904113023125,None,2,230.59292602539062,-1,7,-2,-2,-1,2,0,1,1756999823125065326
0,2.602890968,20250904113023125,None,2,230.59292602539062,-1,-6,-1,0,3,-6,-19,-3,1756999823125197410
0,2.61767602,20250904113023140,None,2,231.78277587890625,0,-8,-4,0,0,6,29,7,1756999823140117406
0,2.617784977,20250904113023140,None,2,231.78277587890625,-5,2,1,-3,-1,1,0,-2,1756999823140267848
0,2.625038624,20250904113023147,None,2,230.59292602539062,0,-3,2,-1,0,2,1,1,1756999823147573471
0,2.625133276,20250904113023147,None,2,230.59292602539062,0,1,-2,-4,-2,-1,-3,-3,1756999823147691965
0,2.632650375,20250904113023155,None,2,232.020751953125,1,-2,-1,1,2,0,-4,-5,1756999823155154228
0,2.632734537,20250904113023155,None,2,232.020751953125,-5,2,-2,-2,-3,-3,-2,-2,1756999823155294418
0,2.647638321,20250904113023170,None,2,231.06886291503906,5,8,0,2,2,0,-1,0,1756999823170086622
0,2.64792943,20250904113023170,None,2,231.06886291503906,0,-6,-2,-1,-1,-3,-2,-2,1756999823170415401
0,2.655141354,20250904113023177,None,2,231.5447998046875,-5,-1,-1,-2,-3,2,-3,-2,1756999823177587747
0,2.655277729,20250904113023178,None,2,231.5447998046875,-1,-1,-1,0,-3,2,1,-1,1756999823177722692
0,2.662575245,20250904113023185,None,2,231.78277587890625,3,1,0,-3,0,-1,-2,-1,1756999823185062408
0,2.662672281,20250904113023185,None,2,231.78277587890625,0,-3,-3,-4,1,1,5,1,1756999823185196876
0,2.677899122,20250904113023200,None,2,232.020751953125,1,4,-1,0,-1,-1,0,-1,1756999823200103282
0,2.678097486,20250904113023200,None,2,232.020751953125,1,-2,-2,-2,-3,2,-8,0,1756999823200250864
0,2.685303211,20250904113023208,None,2,232.020751953125,-3,-2,-2,-3,-2,3,10,-1,1756999823207556724
0,2.685488462,20250904113023208,None,2,232.020751953125,-4,-1,-3,1,1,-4,-1,-2,1756999823207679510
0,2.692784786,20250904113023215,None,2,230.59292602539062,0,-1,1,0,3,-2,-3,-2,1756999823215040683
0,2.692964792,20250904113023215,None,2,230.59292602539062,0,0,0,-1,0,0,-5,-3,1756999823215164899
0,2.7078824040000002,20250904113023230,None,2,230.83090209960938,-1,-2,-2,-4,-1,-3,4,-3,1756999823230090856
0,2.708079338,20250904113023230,None,2,230.83090209960938,1,-1,0,0,4,-1,-1,-2,1756999823230244874
0,2.71535635,20250904113023238,None,2,232.2587127685547,1,-6,1,0,1,-1,1,-2,1756999823237567663
0,2.715593815,20250904113023238,None,2,232.2587127685547,-2,4,1,1,0,-2,-4,1,1756999823237730026
0,2.722645044,20250904113023245,None,2,232.2587127685547,0,-4,3,-1,-3,-2,-1,-2,1756999823244967699
0,2.72291398,20250904113023245,None,2,230.83090209960938,-5,0,-1,0,-1,2,-1,-2,1756999823245079517
0,2.7378356459999997,20250904113023260,None,2,231.3068389892578,0,-1,-2,-1,-2,-1,0,3,1756999823260098457
0,2.738014936,20250904113023260,None,2,231.3068389892578,1,-4,1,0,1,-6,-14,-5,1756999823260240554
0,2.745171547,20250904113023267,None,2,231.06886291503906,3,3,-1,-1,2,5,19,4,1756999823267521381
0,2.745310068,20250904113023268,None,2,231.06886291503906,3,2,-1,-1,-2,-3,0,-3,1756999823267641782
0,2.752765894,20250904113023275,None,2,231.06886291503906,-3,-1,-1,-2,-3,-2,-1,-3,1756999823275017261
0,2.752946615,20250904113023275,None,2,231.06886291503906,0,1,0,1,0,-2,-4,-3,1756999823275131464
0,2.767899275,20250904113023290,None,2,232.020751953125,1,-4,0,-1,1,1,-1,1,1756999823290085554
0,2.768078804,20250904113023290,None,2,232.020751953125,-2,-1,0,-4,-2,-2,-1,-3,1756999823290265560
0,2.775325537,20250904113023298,None,2,230.83090209960938,4,3,0,-3,0,-1,-1,-1,1756999823297549009
0,2.7755439280000003,20250904113023298,None,2,230.83090209960938,-2,-5,1,1,0,2,1,0,1756999823297689676
0,2.782567024,20250904113023305,None,2,232.2587127685547,0,-3,-2,-1,-4,-1,-6,-2,1756999823305042743
0,2.782698631,20250904113023305,None,2,232.2587127685547,4,0,0,1,-1,3,3,-3,1756999823305174112
0,2.797737837,20250904113023320,None,2,232.2587127685547,-2,1,-1,-1,0,1,1,1,1756999823320152997
0,2.79790616,20250904113023320,None,2,232.2587127685547,0,-2,-1,2,0,-3,1,0,1756999823320333242
0,2.8050112719999998,20250904113023327,None,2,232.2587127685547,0,-7,-2,1,-2,-7,-13,-3,1756999823327557086
0,2.805105925,20250904113023327,None,2,232.2587127685547,1,-3,-1,-1,-2,5,9,-2,1756999823327697992
0,2.812582254,20250904113023335,None,2,230.83090209960938,0,0,1,-2,1,-1,4,1,1756999823335096597
0,2.812689781,20250904113023335,None,2,230.83090209960938,-1,2,-2,-1,-3,0,-1,0,1756999823335266113
0,2.827705622,20250904113023350,None,2,231.3068389892578,0,3,-1,-4,0,3,-4,-4,1756999823350134372
0,2.827818632,20250904113023350,None,2,231.3068389892578,1,-10,-1,-3,-3,-3,-2,3,1756999823350300073
0,2.835088968,20250904113023357,None,2,231.5447998046875,-1,1,-1,-2,-3,-1,-4,-1,1756999823357563495
0,2.8352200979999997,20250904113023357,None,2,231.5447998046875,0,-6,-3,-1,4,0,0,1,1756999823357710123
0,2.842566729,20250904113023365,None,2,231.5447998046875,-5,-2,1,-3,-1,0,-1,-3,1756999823365074872
0,2.842645407,20250904113023365,None,2,231.5447998046875,0,1,3,-2,-4,2,0,-2,1756999823365239381
0,2.857460499,20250904113023380,None,2,230.83090209960938,2,0,0,0,-1,1,1,1,1756999823380035161
0,2.85754919,20250904113023380,None,2,230.83090209960938,-2,-3,2,-1,0,-1,-2,1,1756999823380145072
0,2.865053177,20250904113023387,None,2,232.020751953125,-1,1,-1,-1,0,0,1,0,1756999823387569904
0,2.865146399,20250904113023387,None,2,232.020751953125,-4,-2,0,0,0,-7,-15,-3,1756999823387737035
0,2.872722149,20250904113023395,None,2,230.59292602539062,2,0,-2,0,2,1,23,5,1756999823395142316
0,2.872823715,20250904113023395,None,2,230.59292602539062,-2,-5,0,-3,0,3,-2,1,1756999823395261526
0,2.8876202109999998,20250904113023410,None,2,232.020751953125,4,0,2,1,-3,0,-3,-2,1756999823410094022
0,2.887711048,20250904113023410,None,2,232.020751953125,-1,0,2,0,0,-1,-3,-3,1756999823410263061
0,2.895132303,20250904113023417,None,2,230.35494995117188,-1,2,-1,-3,-1,1,-1,-4,1756999823417567968
0,2.895374775,20250904113023418,None,2,230.35494995117188,0,-2,0,-4,-3,-2,-5,0,1756999823417722463
0,2.902466536,20250904113023425,None,2,231.78277587890625,-4,-4,1,-2,2,0,3,-2,1756999823425001621
0,2.902614117,20250904113023425,None,2,231.78277587890625,2,3,-3,-2,0,-1,2,0,1756999823425120115
0,2.917537928,20250904113023440,None,2,230.83090209960938,-1,1,-3,-2,0,-2,0,-1,1756999823440036058
0,2.9176194669999997,20250904113023440,None,2,230.83090209960938,-4,-11,-1,-1,-1,-1,-4,-2,1756999823440166234
0,2.925048351,20250904113023447,None,2,231.06886291503906,-2,-4,-3,1,0,2,0,3,1756999823447565555
0,2.925147533,20250904113023447,None,2,231.06886291503906,0,5,-2,2,2,-2,1,-1,1756999823447702169
0,2.932620048,20250904113023455,None,2,231.5447998046875,-1,-1,-4,-4,1,-3,-1,-1,1756999823455080986
0,2.932838678,20250904113023455,None,2,231.5447998046875,-1,1,-1,-1,-3,-8,-16,-2,1756999823455210924
0,2.9476544860000002,20250904113023470,None,2,232.020751953125,2,4,1,2,3,7,22,6,1756999823470100164
0,2.947803259,20250904113023470,None,2,232.020751953125,-2,-8,0,1,-1,1,0,-1,1756999823470255851
0,2.955039024,20250904113023477,None,2,230.59292602539062,-6,-7,-1,1,-1,-1,-3,-3,1756999823477540254
0,2.9551434519999997,20250904113023477,None,2,230.59292602539062,4,0,1,1,-1,0,-6,-1,1756999823477661371
0,2.962563038,20250904113023485,None,2,232.2587127685547,1,6,1,-1,0,0,-1,-1,1756999823485063314
0,2.962692261,20250904113023485,None,2,232.2587127685547,-1,-4,-1,-2,1,-2,-2,-3,1756999823485183715
0,2.97762084,20250904113023500,None,2,230.59292602539062,-5,-6,2,-2,-3,-1,-2,-2,1756999823500108718
0,2.9777455330000002,20250904113023500,None,2,230.59292602539062,2,2,0,0,3,2,4,-1,1756999823500254869
0,2.985110044,20250904113023507,None,2,232.020751953125,1,3,-3,-3,-1,-4,-6,0,1756999823507595539
0,2.985246181,20250904113023507,None,2,232.020751953125,-3,-3,-2,0,-2,-1,0,3,1756999823507728099
0,2.9925854210000002,20250904113023515,None,2,231.06886291503906,0,0,-3,-1,-1,0,3,2,1756999823515090942
0,2.992789507,20250904113023515,None,2,231.06886291503906,3,-2,0,-4,-3,-2,-2,-2,1756999823515219211
0,3.007583857,20250904113023530,None,2,231.5447998046875,-1,7,-1,-1,0,-4,-5,0,1756999823530072212
0,3.007774591,20250904113023530,None,2,231.5447998046875,0,-4,0,-1,3,-3,-14,-2,1756999823530200004
0,3.015102625,20250904113023537,None,2,231.06886291503906,-5,-8,-1,1,1,6,18,0,1756999823537571668
0,3.015232563,20250904113023537,None,2,231.06886291503906,0,0,-3,0,-1,-3,-3,2,1756999823537704944
0,3.022690773,20250904113023545,None,2,231.06886291503906,-1,0,-3,-2,-1,1,4,4,1756999823545102834
0,3.022843361,20250904113023545,None,2,231.06886291503906,-4,-1,-1,0,-3,-4,-9,-3,1756999823545268535
0,3.037737846,20250904113023560,None,2,230.35494995117188,-3,2,1,0,0,2,0,4,1756999823560129642
0,3.037910461,20250904113023560,None,2,230.35494995117188,-3,-5,-1,-4,2,0,-1,-3,1756999823560300111
0,3.04505825,20250904113023567,None,2,230.35494995117188,-2,3,1,-3,-2,-1,1,-3,1756999823567580699
0,3.045174122,20250904113023567,None,2,230.35494995117188,-1,-3,-2,-1,1,-1,-1,-3,1756999823567702770
0,3.052592993,20250904113023575,None,2,232.020751953125,-1,3,1,0,-2,0,-2,-2,1756999823575081825
0,3.052714825,20250904113023575,None,2,232.020751953125,-2,-12,-1,-1,-2,-2,-2,-2,1756999823575209379
0,3.067553759,20250904113023590,None,2,231.78277587890625,-2,-3,-3,-8,0,-1,-2,0,1756999823590043544
0,3.067676783,20250904113023590,None,2,231.78277587890625,2,4,1,-1,-1,-2,-3,1,1756999823590185165
0,3.075036526,20250904113023597,None,2,231.06886291503906,0,3,-2,-1,-2,0,5,-1,1756999823597553968
0,3.075149059,20250904113023597,None,2,231.06886291503906,2,-1,0,-1,1,0,0,-1,1756999823597686290
0,3.082582474,20250904113023605,None,2,231.78277587890625,-3,3,2,0,-1,-2,-4,-4,1756999823605053424
0,3.082717419,20250904113023605,None,2,231.78277587890625,1,-4,0,-2,-2,-3,1,2,1756999823605194807
0,3.097586155,20250904113023620,None,2,231.3068389892578,3,2,0,0,-3,-2,0,-1,1756999823620074987
0,3.09772253,20250904113023620,None,2,231.3068389892578,-4,-1,-3,-2,-4,-4,-6,-5,1756999823620195865
0,3.105169773,20250904113023627,None,2,231.06886291503906,-3,-8,-1,2,4,1,-1,1,1756999823627599477
0,3.105355263,20250904113023628,None,2,231.06886291503906,-1,0,-1,1,-3,-1,0,-1,1756999823627732038
0,3.112532616,20250904113023635,None,2,231.78277587890625,2,0,1,-2,-3,-4,0,-2,1756999823635051727
0,3.112648487,20250904113023635,None,2,231.78277587890625,-2,-1,-1,1,-1,-4,-8,-7,1756999823635177135
0,3.12758851,20250904113023650,None,2,230.83090209960938,1,0,1,2,-2,-4,5,6,1756999823650068759
0,3.127708197,20250904113023650,None,2,230.83090209960938,-3,-2,0,-3,-1,0,-3,-3,1756999823650197982
0,3.135123968,20250904113023657,None,2,232.2587127685547,0,1,0,-4,0,-5,-18,-3,1756999823657582998
0,3.135271072,20250904113023658,None,2,232.2587127685547,2,1,2,-2,1,5,15,1,1756999823657723665
0,3.142631531,20250904113023665,None,2,230.83090209960938,-2,-1,1,1,1,-2,-3,-1,1756999823665128946
0,3.142725468,20250904113023665,None,2,230.83090209960938,-2,-3,-1,-4,-4,-2,0,-1,1756999823665267705
0,3.157723427,20250904113023680,None,2,230.83090209960938,0,-1,-1,-3,-1,-3,-5,1,1756999823680149316
0,3.157816648,20250904113023680,None,2,230.83090209960938,-3,-1,-1,-1,-2,1,1,0,1756999823680269002
0,3.164965868,20250904113023687,None,2,230.83090209960938,3,2,0,3,1,5,0,-3,1756999823687520742
0,3.165050268,20250904113023687,None,2,230.83090209960938,-2,-7,1,-1,-5,-2,-2,-2,1756999823687625885
0,3.172599316,20250904113023695,None,2,232.020751953125,-2,3,2,1,3,-4,2,-1,1756999823695071220
0,3.172727585,20250904113023695,None,2,232.020751953125,-3,-5,-2,-4,-2,2,-2,-3,1756999823695204973
0,3.187567711,20250904113023710,None,2,231.06886291503906,-3,1,0,-1,-2,-1,-6,1,1756999823710060834
0,3.187688351,20250904113023710,None,2,231.06886291503906,-3,6,-1,-2,-2,0,1,-2,1756999823710184812
0,3.194996119,20250904113023717,None,2,231.5447998046875,3,0,1,-1,-1,-2,0,4,1756999823717528820
0,3.195319176,20250904113023718,None,2,231.5447998046875,-1,4,-1,-4,1,-1,-2,-6,1756999823717639923
0,3.202512741,20250904113023725,None,2,230.59292602539062,-1,-5,-1,-4,0,5,10,2,1756999823725014209
0,3.202665091,20250904113023725,None,2,230.59292602539062,2,3,1,-1,-4,0,-2,0,1756999823725123405
0,3.217474699,20250904113023740,None,2,232.020751953125,-1,-1,-2,-3,-4,-1,-4,0,1756999823739971876
0,3.217578173,20250904113023740,None,2,232.020751953125,-6,-7,-4,0,-2,-2,-1,-4,1756999823740071535
0,3.233353138,20250904113023756,None,2,232.2587127685547,-4,0,-1,2,1,1,2,-1,1756999823755753278
0,3.233558893,20250904113023756,None,2,232.2587127685547,0,0,-3,-3,-1,-2,0,1,1756999823755892038
0,3.233938694,20250904113023756,None,2,232.2587127685547,-2,-1,-1,-4,-1,1,-3,-4,1756999823756511449
0,3.234039307,20250904113023756,None,2,232.2587127685547,-1,0,-1,2,4,-4,2,1,1756999823756620883
0,3.24748373,20250904113023770,None,2,230.83090209960938,-3,0,0,-3,1,-1,0,-1,1756999823770007610
0,3.247592926,20250904113023770,None,2,230.83090209960938,-2,-3,-3,0,-1,0,-3,-2,1756999823770149707
0,3.255147934,20250904113023777,None,2,231.5447998046875,1,1,1,0,-2,-1,0,-2,1756999823777592182
0,3.255316496,20250904113023778,None,2,231.5447998046875,2,1,-2,-4,-5,0,0,2,1756999823777722358
0,3.270093679,20250904113023792,None,2,231.3068389892578,-1,-1,-3,-1,-2,2,1,-2,1756999823792588949
0,3.270239353,20250904113023792,None,2,231.3068389892578,-4,-5,-3,0,0,2,4,1,1756999823792751073
0,3.277632475,20250904113023800,None,2,231.78277587890625,-3,2,-2,-2,0,0,-2,-1,1756999823800090551
0,3.277819395,20250904113023800,None,2,231.78277587890625,0,-2,-1,-3,0,-1,-4,1,1756999823800249814
0,3.285043716,20250904113023807,None,2,231.78277587890625,-2,-9,-2,2,-1,0,-7,-4,1756999823807564020
0,3.285226583,20250904113023807,None,2,231.78277587890625,-3,-1,-1,-3,-1,-2,-4,-2,1756999823807683944
0,3.300141573,20250904113023822,None,2,232.020751953125,0,5,2,0,0,-3,-1,-2,1756999823822571516
0,3.300287008,20250904113023823,None,2,232.020751953125,-1,0,-3,-4,-3,0,3,1,1756999823822713613
0,3.307392359,20250904113023830,None,2,230.35494995117188,2,-4,0,-2,2,-3,-3,2,1756999823829887151
0,3.307607889,20250904113023830,None,2,230.35494995117188,2,-4,0,-1,-1,0,-3,-4,1756999823829980611
0,3.315022945,20250904113023837,None,2,232.020751953125,-1,-1,-1,1,-2,0,-1,0,1756999823837537527
0,3.315188169,20250904113023837,None,2,232.020751953125,3,2,-1,0,-2,1,-2,0,1756999823837653875
0,3.330018997,20250904113023852,None,2,230.35494995117188,1,-2,-3,3,-2,1,2,1,1756999823852518081
0,3.330174684,20250904113023852,None,2,230.35494995117188,-3,-4,0,-1,-2,-3,-8,-3,1756999823852643728
0,3.337579727,20250904113023860,None,2,232.020751953125,-1,3,-1,-3,-1,1,7,-2,1756999823860081672
0,3.33767128,20250904113023860,None,2,232.020751953125,-3,3,-3,-4,-2,-2,2,2,1756999823860213041
0,3.345046759,20250904113023867,None,2,231.06886291503906,-3,-2,-1,2,-2,-1,-1,-2,1756999823867561578
0,3.345148325,20250904113023867,None,2,231.06886291503906,-4,-7,-2,0,-1,-1,-3,-1,1756999823867716073
0,3.360085964,20250904113023882,None,2,231.5447998046875,-6,-5,-3,-3,-1,-1,-3,-2,1756999823882533550
0,3.360278368,20250904113023883,None,2,231.5447998046875,2,3,0,-1,-3,1,-2,-1,1756999823882666349
0,3.3675627710000002,20250904113023890,None,2,231.5447998046875,0,0,1,-3,-5,-2,-2,-1,1756999823890027761
0,3.367682457,20250904113023890,None,2,231.5447998046875,-2,3,-1,-3,-6,-1,1,-2,1756999823890188455
0,3.375086546,20250904113023897,None,2,230.83090209960938,0,-3,-1,2,2,1,4,-1,1756999823897555351
0,3.375229597,20250904113023897,None,2,230.83090209960938,2,0,-3,0,-1,2,-1,0,1756999823897690773
0,3.390077114,20250904113023912,None,2,230.59292602539062,-3,1,-4,1,1,-1,-3,-4,1756999823912575960
0,3.390195847,20250904113023912,None,2,230.59292602539062,2,5,1,3,-1,0,-1,-3,1756999823912730932
0,3.397633791,20250904113023920,None,2,232.49668884277344,-1,2,-2,1,0,1,1,0,1756999823920108318
0,3.397783041,20250904113023920,None,2,232.49668884277344,-5,-11,-5,-1,-3,-7,-12,-3,1756999823920258045
0,3.404918671,20250904113023927,None,2,230.59292602539062,-2,-4,0,-3,1,7,18,0,1756999823927503347
0,3.405074835,20250904113023927,None,2,230.59292602539062,3,1,1,1,0,-2,0,-1,1756999823927617549
0,3.420020103,20250904113023942,None,2,232.020751953125,0,2,-1,-1,1,-4,-1,0,1756999823942537546
0,3.42013669,20250904113023942,None,2,232.020751953125,3,-1,0,-1,-2,-3,-2,1,1756999823942682027
0,3.427595139,20250904113023950,None,2,231.06886291503906,-2,1,-1,-1,1,-4,-7,-1,1756999823950087785
0,3.427735567,20250904113023950,None,2,231.06886291503906,-2,-1,-1,-1,3,2,5,4,1756999823950219154
0,3.435101986,20250904113023957,None,2,231.5447998046875,-3,-3,0,-1,1,0,-4,-5,1756999823957601785
0,3.435366392,20250904113023958,None,2,231.5447998046875,1,0,-1,-3,-6,-4,-1,2,1756999823957727432
0,3.450108767,20250904113023972,None,2,231.5447998046875,-4,-2,1,2,0,-1,-1,-4,1756999823972596168
0,3.450232744,20250904113023972,None,2,231.5447998046875,0,-2,0,0,-2,1,-1,0,1756999823972729682
0,3.457523823,20250904113023980,None,2,230.83090209960938,3,0,-1,0,0,-3,-3,-1,1756999823980039358
0,3.4576177599999998,20250904113023980,None,2,230.83090209960938,-3,12,-1,-1,-2,-2,-10,1,1756999823980170965
0,3.465135813,20250904113023987,None,2,232.2587127685547,-2,-9,-1,-1,-2,3,14,-1,1756999823987567186
0,3.465244293,20250904113023987,None,2,232.2587127685547,-3,-5,-1,-1,-3,-1,-3,-1,1756999823987647056
0,3.480077744,20250904113024002,None,2,232.49668884277344,1,1,2,1,2,1,-2,0,1756999824002589464
0,3.480189323,20250904113024002,None,2,232.49668884277344,0,-4,0,-1,-1,-2,-1,2,1756999824002744436
0,3.487543821,20250904113024010,None,2,232.49668884277344,0,0,-4,-5,1,-3,-2,-2,1756999824010062217
0,3.487639904,20250904113024010,None,2,232.49668884277344,-4,-2,-2,1,-3,-1,-3,-5,1756999824010192632
0,3.495135784,20250904113024017,None,2,230.59292602539062,-2,-5,-2,-1,-1,1,4,1,1756999824017667293
0,3.495248556,20250904113024017,None,2,230.59292602539062,4,8,-2,-2,-1,-3,0,0,1756999824017784118
0,3.510173082,20250904113024032,None,2,231.06886291503906,3,-2,-3,-4,-1,1,1,5,1756999824032605648
0,3.510393858,20250904113024033,None,2,231.06886291503906,-4,-4,-1,-3,-3,-1,-3,-4,1756999824032772064
0,3.517612696,20250904113024040,None,2,231.5447998046875,2,0,2,1,3,0,2,0,1756999824040082693
0,3.517748594,20250904113024040,None,2,231.5447998046875,-1,-3,-1,-2,1,0,-1,3,1756999824040242910
0,3.525007486,20250904113024047,None,2,231.5447998046875,-2,-5,0,0,-2,-1,0,0,1756999824047531843
0,3.525141478,20250904113024047,None,2,231.5447998046875,0,0,0,2,-2,-5,-15,-3,1756999824047651290
0,3.540038586,20250904113024062,None,2,230.59292602539062,-2,0,-2,-2,3,4,18,1,1756999824062529802
0,3.54017663,20250904113024062,None,2,230.59292602539062,2,5,0,-1,-3,0,1,-1,1756999824062643289
0,3.54756093,20250904113024070,None,2,232.020751953125,-3,-5,-1,1,0,0,-5,1,1756999824070043087
0,3.547692299,20250904113024070,None,2,232.020751953125,-1,3,-4,-3,0,0,0,-2,1756999824070182800
0,3.55503583,20250904113024077,None,2,230.35494995117188,-5,2,0,2,-1,-3,-1,1,1756999824077539682
0,3.555165768,20250904113024077,None,2,230.35494995117188,-1,-1,3,-1,2,0,1,-2,1756999824077671051
0,3.570026159,20250904113024092,None,2,231.78277587890625,0,-1,-2,-3,1,-3,-2,-2,1756999824092544794
0,3.570145845,20250904113024092,None,2,231.78277587890625,0,0,-2,-3,-1,1,-3,-1,1756999824092673063
0,3.577589989,20250904113024100,None,2,230.59292602539062,0,-1,1,-2,-4,-2,-3,-4,1756999824100077390
0,3.577704906,20250904113024100,None,2,230.59292602539062,4,1,2,5,7,0,2,-2,1756999824100194215
0,3.585214853,20250904113024107,None,2,232.2587127685547,-2,-6,0,-2,-2,1,0,-2,1756999824107654571
0,3.5853378769999997,20250904113024108,None,2,232.2587127685547,-3,-3,-3,-1,-1,-3,-1,-3,1756999824107828140
0,3.6002514359999997,20250904113024123,None,2,231.78277587890625,-5,-1,-1,-3,-2,0,-1,-1,1756999824122622966
0,3.600418806,20250904113024123,None,2,231.78277587890625,-3,-3,-3,-2,-3,-2,-3,-2,1756999824122838020
0,3.607453108,20250904113024130,None,2,231.78277587890625,-2,1,-2,0,-2,-4,-13,-2,1756999824130010604
0,3.607551336,20250904113024130,None,2,231.78277587890625,2,1,-2,-3,-1,6,11,0,1756999824130145311
0,3.615042925,20250904113024137,None,2,231.3068389892578,5,8,-1,0,1,-1,2,-2,1756999824137544155
0,3.615140915,20250904113024137,None,2,231.3068389892578,-1,-8,-1,1,-4,-2,-1,-1,1756999824137676715
0,3.630064011,20250904113024152,None,2,231.78277587890625,-6,-8,-2,1,-2,-2,-3,0,1756999824152512550
0,3.6301596160000003,20250904113024152,None,2,231.78277587890625,-2,2,-2,1,0,-1,-4,-1,1756999824152635097
0,3.637580872,20250904113024160,None,2,230.83090209960938,0,0,-3,2,-2,-1,-3,-1,1756999824160051107
0,3.637696981,20250904113024160,None,2,230.83090209960938,-1,4,-1,-2,-1,-2,-1,-6,1756999824160171747
0,3.645362616,20250904113024168,None,2,230.83090209960938,-2,0,-1,-1,-1,-1,-3,2,1756999824167620658
0,3.645704985,20250904113024168,None,2,230.83090209960938,-2,-1,-1,-1,0,1,-3,0,1756999824167803049
0,3.6605179310000002,20250904113024183,None,2,230.59292602539062,-2,0,-1,-1,1,0,-1,0,1756999824182664394
0,3.660820246,20250904113024183,None,2,230.59292602539062,-1,1,-1,-3,0,0,-2,0,1756999824182804822
0,3.667608499,20250904113024190,None,2,231.78277587890625,-1,2,1,-1,-1,0,-4,0,1756999824190064191
0,3.667711496,20250904113024190,None,2,231.78277587890625,-1,-8,0,0,-2,-3,-14,1,1756999824190223693
0,3.675089836,20250904113024197,None,2,231.06886291503906,1,2,-1,0,-1,3,8,-4,1756999824197545766
0,3.675195694,20250904113024197,None,2,231.06886291503906,2,3,-1,-1,-1,-1,2,-1,1756999824197688579
0,3.690093517,20250904113024212,None,2,232.020751953125,0,3,0,-2,3,0,0,0,1756999824212585449
0,3.690223694,20250904113024212,None,2,232.020751953125,-4,3,-1,-2,1,-5,-1,0,1756999824212761640
0,3.697685719,20250904113024220,None,2,231.3068389892578,-1,-2,0,1,0,-3,-2,-2,1756999824220165014
0,3.697814703,20250904113024220,None,2,231.3068389892578,-4,-4,0,-3,-1,0,-2,-3,1756999824220354795
0,3.705077887,20250904113024227,None,2,231.78277587890625,-1,-1,0,0,-3,1,-1,0,1756999824227594614
0,3.705176592,20250904113024227,None,2,231.78277587890625,4,1,-4,-3,-1,-3,-2,0,1756999824227738618
0,3.720274687,20250904113024243,None,2,230.83090209960938,-6,-4,-2,0,0,0,-1,-2,1756999824242643594
0,3.720384359,20250904113024243,None,2,230.83090209960938,2,4,-2,0,-4,0,0,-2,1756999824242823123
0,3.7275331019999998,20250904113024250,None,2,230.83090209960938,1,-1,2,1,1,2,-2,-2,1756999824250063896
0,3.727636337,20250904113024250,None,2,230.83090209960938,-1,-1,-3,-4,-3,-2,-5,0,1756999824250202417
0,3.734964132,20250904113024257,None,2,232.2587127685547,-2,-5,2,-1,-2,1,0,-3,1756999824257496595
0,3.735049248,20250904113024257,None,2,232.2587127685547,-1,-5,-1,-1,-1,-8,-12,2,1756999824257617950
0,3.750380516,20250904113024273,None,2,232.020751953125,-3,1,1,-1,0,4,14,-3,1756999824272616863
0,3.750618219,20250904113024273,None,2,232.020751953125,-1,-5,-4,0,-5,-2,0,-3,1756999824272748708
0,3.757803678,20250904113024280,None,2,230.59292602539062,2,4,0,2,-2,-1,-2,-3,1756999824280049562
0,3.758017302,20250904113024280,None,2,230.59292602539062,1,-3,-2,-4,0,0,-1,1,1756999824280208349
0,3.765322685,20250904113024288,None,2,232.020751953125,2,-2,-2,0,1,-1,-7,-1,1756999824287580251
0,3.765536785,20250904113024288,None,2,232.020751953125,-5,-1,1,0,-3,-1,-1,-2,1756999824287708520
0,3.780266762,20250904113024303,None,2,231.3068389892578,-1,0,-3,0,-4,-2,0,2,1756999824302528619
0,3.780446768,20250904113024303,None,2,231.3068389892578,1,0,0,1,-4,-2,-2,2,1756999824302677869
0,3.787763834,20250904113024310,None,2,231.78277587890625,-1,2,0,-2,6,0,0,-2,1756999824310025930
0,3.787928343,20250904113024310,None,2,231.78277587890625,0,-4,0,1,0,-2,-3,-1,1756999824310141801
0,3.795322895,20250904113024318,None,2,231.78277587890625,1,0,-1,-2,0,-1,2,2,1756999824317526340
0,3.795625448,20250904113024318,None,2,231.78277587890625,-2,1,-4,-3,2,-2,-4,-2,1756999824317652225
0,3.810150623,20250904113024332,None,2,231.06886291503906,-5,-2,-1,1,0,0,-3,-3,1756999824332571506
0,3.810327291,20250904113024333,None,2,231.06886291503906,2,-1,-2,0,0,-3,2,1,1756999824332696914
0,3.817544937,20250904113024340,None,2,232.2587127685547,0,-2,0,0,-2,-3,-9,-1,1756999824340066194
0,3.817638397,20250904113024340,None,2,232.2587127685547,2,2,-4,-5,-2,3,7,4,1756999824340203762
0,3.82502985,20250904113024347,None,2,230.35494995117188,0,1,-1,0,1,2,-2,-1,1756999824347556829
0,3.82512331,20250904113024347,None,2,230.35494995117188,-4,-3,-1,-1,-4,-5,-6,-3,1756999824347673892
0,3.840049744,20250904113024362,None,2,230.35494995117188,-3,1,-2,-2,0,0,-2,3,1756999824362520933
0,3.840175867,20250904113024362,None,2,230.35494995117188,4,9,-2,-1,2,-2,0,0,1756999824362664937
0,3.847543955,20250904113024370,None,2,230.35494995117188,3,-1,-1,0,-3,-3,1,2,1756999824370039701
0,3.847721815,20250904113024370,None,2,230.35494995117188,-3,0,0,-1,-6,-3,-4,-5,1756999824370184421
0,3.855046988,20250904113024377,None,2,231.78277587890625,1,-4,1,5,3,2,3,-1,1756999824377522230
0,3.855143309,20250904113024377,None,2,231.78277587890625,-2,1,-2,3,-1,0,-2,-2,1756999824377655267
0,3.870212555,20250904113024392,None,2,231.5447998046875,-2,3,0,-4,-3,-2,-3,-3,1756999824392606735
0,3.870337486,20250904113024393,None,2,231.5447998046875,6,-2,-2,-2,-3,-4,-2,3,1756999824392745018
0,3.877745151,20250904113024400,None,2,231.5447998046875,-2,-1,-2,-1,-2,-1,-3,-1,1756999824400135517
0,3.877843618,20250904113024400,None,2,231.5447998046875,-4,-5,-2,-2,0,-2,-4,-2,1756999824400257587
0,3.884977818,20250904113024407,None,2,231.06886291503906,-3,-3,1,-1,1,2,-1,1,1756999824407512903
0,3.8850581650000002,20250904113024407,None,2,231.06886291503906,0,-2,-2,0,0,2,5,-2,1756999824407654285
0,3.90015173,20250904113024422,None,2,231.78277587890625,2,-1,-1,-1,0,-2,0,3,1756999824422586679
0,3.900296688,20250904113024423,None,2,231.78277587890625,-2,-1,1,-2,2,0,-1,-1,1756999824422721862
0,3.907604933,20250904113024430,None,2,230.59292602539062,0,-2,-1,-1,1,-2,-3,-1,1756999824430064916
0,3.907702684,20250904113024430,None,2,230.59292602539062,2,1,-1,-1,-2,-1,-1,-4,1756999824430201292
0,3.915075064,20250904113024437,None,2,232.2587127685547,0,-6,-1,-3,-1,-1,-2,2,1756999824437575817
0,3.915205479,20250904113024437,None,2,232.2587127685547,1,-1,-1,-4,-6,-1,-1,-1,1756999824437739849
0,3.930064917,20250904113024452,None,2,230.35494995117188,-3,-1,0,0,2,-5,-1,0,1756999824452583074
0,3.930399179,20250904113024453,None,2,230.35494995117188,-1,-3,-2,0,-3,-1,-6,-4,1756999824452757596
0,3.937595129,20250904113024460,None,2,232.020751953125,-1,2,-2,-1,-3,2,7,3,1756999824460069894
0,3.937709808,20250904113024460,None,2,232.020751953125,3,3,0,0,0,-1,1,0,1756999824460247516
0,3.945197582,20250904113024467,None,2,231.06886291503906,-4,1,-2,-2,-3,-1,-2,-4,1756999824467641592
0,3.94530654,20250904113024468,None,2,231.06886291503906,0,5,-3,-4,-2,-5,-16,-4,1756999824467793464
0,3.96006465,20250904113024482,None,2,231.3068389892578,-4,-9,-1,-3,-1,3,19,2,1756999824482584238
0,3.960183144,20250904113024482,None,2,231.3068389892578,-1,1,-3,2,0,-1,1,1,1756999824482731103
0,3.967568159,20250904113024490,None,2,231.3068389892578,3,4,-4,0,-4,-1,-1,2,1756999824490077972
0,3.967682838,20250904113024490,None,2,231.3068389892578,-1,3,-3,0,-2,-3,-7,-5,1756999824490214586
0,3.9750859739999997,20250904113024497,None,2,230.83090209960938,1,-6,-3,-1,1,-1,-1,-1,1756999824497580766
0,3.97518158,20250904113024497,None,2,230.83090209960938,-1,-4,0,-1,-1,-5,0,0,1756999824497709989
0,3.990126133,20250904113024512,None,2,230.35494995117188,-3,0,-1,-1,-5,-2,3,1,1756999824512602806
0,3.990231514,20250904113024512,None,2,230.35494995117188,0,-2,-1,1,4,3,1,3,1756999824512763023
0,3.997891426,20250904113024520,None,2,232.020751953125,1,0,0,-2,-2,-1,1,-2,1756999824520275592
0,3.99800086,20250904113024520,None,2,232.020751953125,1,4,-5,-3,-3,-1,-3,0,1756999824520554065
0,4.005039453,20250904113024527,None,2,232.020751953125,1,-2,3,0,0,0,-2,-3,1756999824527567625
0,4.005123377,20250904113024527,None,2,232.020751953125,-2,1,-2,-2,-2,-1,1,3,1756999824527702093
0,4.020140409,20250904113024542,None,2,232.49668884277344,-6,-6,-3,-3,2,-3,-4,-2,1756999824542551040
0,4.020291805,20250904113024543,None,2,232.49668884277344,1,1,-1,-4,2,-4,-13,-1,1756999824542699098
0,4.027548075,20250904113024550,None,2,230.83090209960938,3,-2,-1,-2,2,5,16,0,1756999824550022125
0,4.027685404,20250904113024550,None,2,230.83090209960938,-4,-9,0,1,1,1,0,0,1756999824550147771
0,4.034958839,20250904113024557,None,2,231.78277587890625,-3,1,-1,-6,-3,-1,-5,-6,1756999824557502985
0,4.035061598,20250904113024557,None,2,231.78277587890625,1,5,0,2,2,0,0,2,1756999824557620525
0,4.050023794,20250904113024572,None,2,231.3068389892578,-3,-7,-2,-2,-1,-5,-5,-1,1756999824572538614
0,4.050144672,20250904113024572,None,2,231.3068389892578,-1,-2,2,2,0,2,-3,-2,1756999824572652816
0,4.057424307,20250904113024580,None,2,231.06886291503906,-1,-1,-2,3,-3,-3,-6,-1,1756999824579994440
0,4.057544231,20250904113024580,None,2,231.06886291503906,-1,1,-3,2,0,-1,2,-1,1756999824580103397
0,4.065017939,20250904113024587,None,2,231.78277587890625,3,0,-1,-2,-1,-2,0,0,1756999824587559938
0,4.065134287,20250904113024587,None,2,231.78277587890625,-5,-9,-1,-1,-1,1,0,2,1756999824587678194
0,4.080013752,20250904113024602,None,2,232.2587127685547,1,5,1,1,-1,0,-2,3,1756999824602531671
0,4.080134392,20250904113024602,None,2,232.2587127685547,-2,-2,0,-1,2,-2,-2,-3,1756999824602653503
0,4.087482929,20250904113024610,None,2,232.2587127685547,3,3,-1,-1,-2,1,0,1,1756999824610023021
0,4.08759594,20250904113024610,None,2,232.2587127685547,-1,4,0,2,-5,-4,-15,-5,1756999824610141277
0,4.09504962,20250904113024617,None,2,230.83090209960938,-2,2,-4,-3,-1,4,17,3,1756999824617554426
0,4.095170498,20250904113024617,None,2,230.83090209960938,-3,-4,-3,0,1,1,5,1,1756999824617678880
0,4.110100508,20250904113024632,None,2,230.59292602539062,-2,-2,0,0,0,-1,-5,-1,1756999824632566690
0,4.110257387,20250904113024633,None,2,230.59292602539062,3,1,0,0,0,1,-1,2,1756999824632703065
0,4.117512941,20250904113024640,None,2,231.5447998046875,-3,-1,-1,-2,-2,1,-4,-1,1756999824640038251
0,4.11759448,20250904113024640,None,2,231.5447998046875,-1,-5,1,-1,1,0,-1,-2,1756999824640151739
0,4.125016689,20250904113024647,None,2,231.5447998046875,-1,1,-2,0,1,3,-1,0,1756999824647507667
0,4.125165939,20250904113024647,None,2,231.5447998046875,-1,2,0,-4,-4,1,-3,-2,1756999824647623777
0,4.140093088,20250904113024662,None,2,231.06886291503906,2,1,-1,-3,-1,0,1,1,1756999824662570476
0,4.140250444,20250904113024662,None,2,231.06886291503906,0,0,1,-2,1,-1,-3,0,1756999824662699699
0,4.147596836,20250904113024670,None,2,231.78277587890625,-2,-2,-1,-1,0,0,-2,-3,1756999824670039892
0,4.147799492,20250904113024670,None,2,231.78277587890625,1,1,-8,-1,-2,-3,1,0,1756999824670181274
0,4.155339718,20250904113024678,None,2,230.83090209960938,5,1,-1,-3,1,1,-1,1,1756999824677507638
0,4.155588388,20250904113024678,None,2,230.83090209960938,-3,9,1,1,-4,-7,-12,-1,1756999824677623510
0,4.170142412,20250904113024692,None,2,232.2587127685547,-4,-10,-1,0,3,2,17,0,1756999824692543268
0,4.170285702,20250904113024693,None,2,232.2587127685547,-1,-2,-1,-2,-2,0,-1,0,1756999824692687273
0,4.177617073,20250904113024700,None,2,230.59292602539062,-2,-5,-3,1,-2,-2,-4,0,1756999824700070619
0,4.177783966,20250904113024700,None,2,230.59292602539062,1,6,-2,-1,-2,-1,-7,-3,1756999824700197696
0,4.185095549,20250904113024707,None,2,232.020751953125,-1,-8,-3,-1,1,0,1,3,1756999824707568407
0,4.185276031,20250904113024708,None,2,232.020751953125,1,3,1,-3,0,0,0,-1,1756999824707711458
0,4.200308561,20250904113024723,None,2,230.1169891357422,0,-1,-3,-3,-2,-3,-4,-5,1756999824722715139
0,4.200456858,20250904113024723,None,2,230.1169891357422,-1,-4,-3,-2,-2,-1,2,3,1756999824722908020
0,4.2076141830000005,20250904113024730,None,2,231.78277587890625,1,3,-1,0,0,1,-3,1,1756999824730100154
0,4.207730055,20250904113024730,None,2,231.78277587890625,-2,-2,-3,-1,-3,-1,0,-3,1756999824730292797
0,4.222654104,20250904113024745,None,2,231.78277587890625,-1,-3,-3,0,2,1,0,-2,1756999824745122909
0,4.222791672,20250904113024745,None,2,231.78277587890625,0,6,-2,0,2,0,0,1,1756999824745272636
0,4.23819232,20250904113024760,None,2,231.06886291503906,-2,-2,-1,-3,-3,-1,-1,0,1756999824760695219
0,4.238311529,20250904113024761,None,2,231.06886291503906,2,-7,1,-1,-1,2,6,1,1756999824760850191
0,4.238917112,20250904113024761,None,2,231.06886291503906,3,1,-3,0,-1,-1,-3,-2,1756999824761516809
0,4.239019394,20250904113024761,None,2,231.06886291503906,-2,0,1,0,-2,-2,-4,-3,1756999824761628389
0,4.252655506,20250904113024775,None,2,232.020751953125,0,2,-1,2,-2,-2,-4,-3,1756999824775122642
0,4.252822161,20250904113024775,None,2,232.020751953125,-1,0,-3,-5,-7,-3,-1,0,1756999824775293588
0,4.26003933,20250904113024782,None,2,230.59292602539062,-4,0,-4,0,8,2,-5,0,1756999824782569408
0,4.260167122,20250904113024782,None,2,230.59292602539062,4,-3,0,2,-2,-1,-4,0,1756999824782704591
0,4.267596483,20250904113024790,None,2,232.020751953125,-2,-2,-2,0,1,-1,5,-2,1756999824790092706
0,4.267723083,20250904113024790,None,2,232.020751953125,0,-1,0,0,-2,-2,0,0,1756999824790250301
0,4.283062696,20250904113024805,None,2,231.78277587890625,-2,-2,0,-4,-1,1,-4,2,1756999824805555105
0,4.283186436,20250904113024805,None,2,231.78277587890625,1,1,-4,0,-4,0,-1,-1,1756999824805683374
0,4.290113926,20250904113024812,None,2,231.78277587890625,-1,0,0,0,-2,0,-1,-1,1756999824812539100
0,4.290400267,20250904113024813,None,2,231.78277587890625,-4,0,-1,2,-1,-2,-2,-6,1756999824812650442
0,4.2976017,20250904113024820,None,2,231.3068389892578,-2,-1,-3,0,-4,-5,-12,-5,1756999824820081710
0,4.297803163,20250904113024820,None,2,231.3068389892578,-3,-1,-1,1,0,6,21,0,1756999824820253849
0,4.312582493,20250904113024835,None,2,231.78277587890625,-4,-7,-2,-4,-1,-3,-3,-4,1756999824835075855
0,4.312672377,20250904113024835,None,2,231.78277587890625,1,1,-2,1,1,-2,-1,0,1756999824835248708
0,4.3198735710000005,20250904113024842,None,2,231.06886291503906,3,2,-1,-2,0,-2,-1,0,1756999824842456102
0,4.319955349,20250904113024842,None,2,231.06886291503906,1,0,-1,-5,-3,-1,-3,-1,1756999824842551946
0,4.327664137,20250904113024850,None,2,231.06886291503906,2,-1,-1,1,2,1,4,1,1756999824850077629
0,4.327783108,20250904113024850,None,2,231.06886291503906,0,4,-1,2,1,-4,-1,2,1756999824850219964
0,4.343117952,20250904113024865,None,2,230.59292602539062,-2,-2,0,-2,1,-4,-2,-6,1756999824865581750
0,4.343279362,20250904113024866,None,2,230.59292602539062,-7,-5,-1,0,-2,-2,1,-3,1756999824865751028
0,4.350022078,20250904113024872,None,2,232.2587127685547,2,1,-2,2,-2,-3,0,1,1756999824872560024
0,4.350198269,20250904113024872,None,2,232.2587127685547,2,5,0,0,0,1,5,2,1756999824872679471
0,4.357547283,20250904113024880,None,2,230.59292602539062,3,-6,0,1,-1,-2,1,1,1756999824880067348
0,4.357671022,20250904113024880,None,2,230.59292602539062,-3,2,-1,0,-1,-4,-12,-4,1756999824880190134
0,4.372569561,20250904113024895,None,2,232.020751953125,0,-1,0,1,3,4,16,0,1756999824895069360
0,4.37270093,20250904113024895,None,2,232.020751953125,-3,-6,-1,-2,-1,-3,-4,1,1756999824895202159
0,4.380136728,20250904113024902,None,2,230.83090209960938,1,-1,-1,0,-2,-2,-5,-1,1756999824902594089
0,4.380322695,20250904113024903,None,2,230.83090209960938,2,-1,-3,-4,-1,-1,-3,-1,1756999824902705192
0,4.387616396,20250904113024910,None,2,231.5447998046875,1,4,1,0,0,-1,1,-1,1756999824910054445
0,4.387722731,20250904113024910,None,2,231.5447998046875,0,1,-1,0,-2,0,-3,-3,1756999824910174131
0,4.402473927,20250904113024925,None,2,231.06886291503906,1,-2,-4,1,3,-1,-2,0,1756999824924995422
0,4.40260148,20250904113024925,None,2,231.06886291503906,-1,-3,1,-1,-3,-3,0,-5,1756999824925131559
0,4.409885168,20250904113024932,None,2,231.06886291503906,-1,1,1,0,-3,-2,-3,2,1756999824932467699
0,4.409957409,20250904113024932,None,2,231.06886291503906,-1,-5,-2,-1,1,-2,-2,-2,1756999824932547092
0,4.41752553,20250904113024940,None,2,232.020751953125,-4,-3,-3,-1,-1,0,-1,0,1756999824940030813
0,4.417633057,20250904113024940,None,2,232.020751953125,-1,4,0,0,0,-2,-1,-2,1756999824940153121
0,4.432713747,20250904113024955,None,2,232.2587127685547,0,0,1,-1,-1,-2,1,0,1756999824955122232
0,4.432878733,20250904113024955,None,2,232.2587127685547,-1,3,-1,-1,-2,-5,-8,0,1756999824955284118
0,4.440124273,20250904113024962,None,2,230.59292602539062,-1,-4,-1,1,0,4,19,3,1756999824962591886
0,4.4402771,20250904113024963,None,2,230.59292602539062,0,-2,-1,-1,1,1,0,-1,1756999824962717771
0,4.44773221,20250904113024970,None,2,230.59292602539062,3,2,-3,-1,-2,-2,0,6,1756999824970175743
0,4.447837114,20250904113024970,None,2,230.59292602539062,-4,0,-1,-3,-1,-1,-4,-3,1756999824970351934
0,4.462641239,20250904113024985,None,2,230.83090209960938,-2,-6,-2,2,0,-1,-5,0,1756999824985082149
0,4.462780714,20250904113024985,None,2,230.83090209960938,0,2,3,-3,-5,-3,-3,-4,1756999824985257148
0,4.470035791,20250904113024992,None,2,231.5447998046875,-1,0,-3,0,4,-2,1,0,1756999824992576599
0,4.470132828,20250904113024992,None,2,231.5447998046875,-2,2,-1,-3,1,0,1,-2,1756999824992727041
0,4.477762461,20250904113025000,None,2,231.06886291503906,-1,-2,1,-2,0,1,-1,-1,1756999825000188350
0,4.477929831,20250904113025000,None,2,231.06886291503906,-2,-1,-1,-1,-4,0,3,-1,1756999825000348567
0,4.492540359,20250904113025015,None,2,230.83090209960938,1,3,-1,-2,1,-3,-2,-1,1756999825015024662
0,4.4926786419999996,20250904113025015,None,2,230.83090209960938,2,-1,-4,2,-4,-1,0,-4,1756999825015165090
0,4.500059843,20250904113025022,None,2,232.020751953125,-4,-4,-1,-2,-1,-1,0,0,1756999825022578001
0,4.500243664,20250904113025022,None,2,232.020751953125,-5,-5,-3,-1,-3,0,0,-2,1756999825022709608
0,4.507609367,20250904113025030,None,2,230.59292602539062,-1,1,-2,-3,0,-7,-12,-6,1756999825030089616
0,4.507789612,20250904113025030,None,2,230.59292602539062,3,1,-1,2,1,9,20,5,1756999825030212402
0,4.5226495270000004,20250904113025045,None,2,232.2587127685547,2,1,0,-1,-4,-4,-4,-1,1756999825045073747
0,4.522787333,20250904113025045,None,2,232.2587127685547,-3,4,0,-1,-1,-4,-7,-4,1756999825045203208
0,4.530151844,20250904113025052,None,2,230.83090209960938,0,-6,1,-3,0,4,1,-1,1756999825052539110
0,4.530436277,20250904113025053,None,2,230.83090209960938,1,-6,-1,-4,-3,-1,0,-2,1756999825052689313
0,4.5376091,20250904113025060,None,2,231.78277587890625,0,3,-2,4,2,-1,-5,-1,1756999825060111284
0,4.537723064,20250904113025060,None,2,231.78277587890625,-2,6,0,1,-3,-1,-4,-2,1756999825060245752
0,4.55261898,20250904113025075,None,2,231.5447998046875,-3,-6,-2,-2,0,-2,1,0,1756999825075057983
0,4.552764654,20250904113025075,None,2,231.5447998046875,2,0,-1,-4,-3,-1,0,-1,1756999825075186729
0,4.559954405,20250904113025082,None,2,230.83090209960938,-2,-9,-1,0,0,1,-2,1,1756999825082523584
0,4.560088873,20250904113025082,None,2,230.83090209960938,1,2,0,0,1,0,-1,2,1756999825082634449
0,4.574974298,20250904113025097,None,2,231.06886291503906,1,3,-2,-3,-3,-3,3,0,1756999825097489356
0,4.575081348,20250904113025097,None,2,231.06886291503906,1,3,-2,-2,-3,-3,2,-3,1756999825097617626
0,4.582480907,20250904113025105,None,2,231.5447998046875,-2,2,-1,0,-1,-6,-4,-2,1756999825105033874
0,4.58261013,20250904113025105,None,2,231.5447998046875,3,1,0,2,1,-3,-12,-1,1756999825105169773
0,4.590035915,20250904113025112,None,2,231.06886291503906,3,3,1,-2,-1,2,19,4,1756999825112551450
0,4.590147495,20250904113025112,None,2,231.06886291503906,-1,0,1,-1,0,-3,-2,0,1756999825112696886
0,4.597618818,20250904113025120,None,2,232.49668884277344,-4,-3,-2,-1,-1,0,0,-1,1756999825120113372
0,4.597740889,20250904113025120,None,2,232.49668884277344,-2,2,-1,-2,-2,-5,-1,-6,1756999825120276451
0,4.612630606,20250904113025135,None,2,230.59292602539062,0,4,1,-1,4,1,0,0,1756999825135057926
0,4.612887859,20250904113025135,None,2,230.59292602539062,-2,-5,-2,-3,1,-2,-8,-3,1756999825135189294
0,4.620123625,20250904113025142,None,2,232.2587127685547,-2,-3,-4,-1,-1,0,0,1,1756999825142555475
0,4.620311737,20250904113025143,None,2,232.2587127685547,-2,1,0,0,-1,0,0,3,1756999825142676591
0,4.6275994780000005,20250904113025150,None,2,230.83090209960938,3,0,1,1,-3,-1,-1,-1,1756999825150064706
0,4.627739906,20250904113025150,None,2,230.83090209960938,-2,3,-1,0,-1,-2,1,-1,1756999825150185108
0,4.642668724,20250904113025165,None,2,231.06886291503906,-3,-8,0,-1,-4,-2,-1,2,1756999825165056943
0,4.642857313,20250904113025165,None,2,231.06886291503906,1,-2,1,-4,-4,-1,-1,-4,1756999825165271043
0,4.650059938,20250904113025172,None,2,231.06886291503906,-4,-4,0,-3,-2,-1,1,0,1756999825172551631
0,4.650188684,20250904113025172,None,2,231.06886291503906,-2,-2,-4,0,-1,-1,0,-1,1756999825172670125
0,4.657514572,20250904113025180,None,2,231.3068389892578,1,1,-1,1,0,-6,-10,-4,1756999825180035591
0,4.657624245,20250904113025180,None,2,231.3068389892578,-2,5,-1,-1,0,2,10,2,1756999825180144071
0,4.672566652,20250904113025195,None,2,231.06886291503906,-2,-9,-1,-1,-3,-3,-3,0,1756999825195059061
0,4.672681093,20250904113025195,None,2,231.06886291503906,-1,-3,-3,-1,-3,1,-2,-1,1756999825195207595
0,4.680015564,20250904113025202,None,2,231.78277587890625,-2,2,1,-1,-1,1,0,0,1756999825202548265
0,4.680129528,20250904113025202,None,2,231.78277587890625,0,4,-1,0,-2,-2,-5,-1,1756999825202700376
0,4.687633514,20250904113025210,None,2,230.35494995117188,-4,-5,-1,-4,-2,1,2,-3,1756999825210105895
0,4.687779665,20250904113025210,None,2,230.35494995117188,0,-5,2,-1,1,-1,2,-1,1756999825210256814
0,4.702583075,20250904113025225,None,2,232.020751953125,1,3,-3,-4,-2,-1,-6,-4,1756999825225093841
0,4.702675581,20250904113025225,None,2,232.020751953125,0,0,0,0,2,1,-1,-2,1756999825225237131
0,4.710069418,20250904113025232,None,2,230.59292602539062,1,-2,-2,-2,0,-1,0,2,1756999825232602834
0,4.710178614,20250904113025232,None,2,230.59292602539062,-1,8,-1,-1,1,0,-2,-1,1756999825232725858
0,4.725041866,20250904113025247,None,2,230.83090209960938,0,-2,-3,-1,-3,-1,1,-1,1756999825247558355
0,4.725160837,20250904113025247,None,2,230.83090209960938,0,-3,-1,-2,-1,-4,-6,1,1756999825247699260
0,4.732747316,20250904113025255,None,2,230.83090209960938,-2,-3,-1,1,-2,3,8,-3,1756999825255255460
0,4.732860565,20250904113025255,None,2,230.83090209960938,1,-2,1,1,-1,-1,-3,0,1756999825255447626
0,4.740077734,20250904113025262,None,2,231.78277587890625,2,-1,-3,-5,-3,-1,-3,-1,1756999825262611150
0,4.740173817,20250904113025262,None,2,231.78277587890625,1,7,-1,3,4,-1,-2,-1,1756999825262738704
0,4.747534037,20250904113025270,None,2,231.5447998046875,-2,-1,1,-2,-3,-1,-3,-4,1756999825270045042
0,4.747620821,20250904113025270,None,2,231.5447998046875,-3,-9,-1,-1,-3,0,0,1,1756999825270190477
0,4.762622833,20250904113025285,None,2,231.78277587890625,-3,0,-4,-2,1,1,-4,1,1756999825285081863
0,4.762741327,20250904113025285,None,2,231.78277587890625,1,3,-1,-2,-1,2,3,0,1756999825285258293
0,4.769972563,20250904113025292,None,2,231.78277587890625,-1,-2,3,-3,2,-2,-3,-2,1756999825292542219
0,4.7701413630000005,20250904113025292,None,2,231.78277587890625,0,0,-1,-1,0,2,0,3,1756999825292665958
0,4.7775573730000005,20250904113025300,None,2,230.83090209960938,-1,0,-1,0,-3,-1,-4,-6,1756999825300068616
0,4.777655125,20250904113025300,None,2,230.83090209960938,-4,2,-2,0,-4,-3,-6,-3,1756999825300206184
0,4.792588472,20250904113025315,None,2,230.59292602539062,-2,-2,-1,0,1,0,1,3,1756999825315084218
0,4.792732716,20250904113025315,None,2,230.59292602539062,-3,-2,-2,0,0,-5,-13,-4,1756999825315222501
0,4.800049543,20250904113025322,None,2,232.2587127685547,2,1,0,-2,-1,5,11,-1,1756999825322581052
0,4.800143242,20250904113025322,None,2,232.2587127685547,1,2,0,-3,-1,0,1,-2,1756999825322711706
0,4.807566881,20250904113025330,None,2,232.2587127685547,-1,-4,-2,1,-2,2,-4,1,1756999825330073833
0,4.808078527,20250904113025330,None,2,231.06886291503906,-3,2,-1,3,-1,0,-4,0,1756999825330191373
0,4.822593451,20250904113025345,None,2,231.5447998046875,0,0,-2,0,-1,0,-1,1,1756999825345064163
0,4.822708607,20250904113025345,None,2,231.5447998046875,-2,0,0,0,0,-2,1,-2,1756999825345206975
0,4.830022097,20250904113025352,None,2,231.3068389892578,0,-3,-1,-1,-2,-1,0,-1,1756999825352540969
0,4.8301126960000005,20250904113025352,None,2,231.3068389892578,-1,-1,-1,0,-1,0,0,0,1756999825352674961
0,4.837545872,20250904113025360,None,2,231.3068389892578,-1,-3,-4,0,-4,-1,-2,-1,1756999825360052108
0,4.837665319,20250904113025360,None,2,231.3068389892578,0,-2,1,0,-2,-4,-2,0,1756999825360190868
0,4.85282445,20250904113025375,None,2,232.020751953125,0,-3,2,1,2,-1,0,-3,1756999825375028848
0,4.853030443,20250904113025375,None,2,232.020751953125,-2,-3,1,0,-2,0,-1,-1,1756999825375173807
0,4.860174417,20250904113025382,None,2,230.35494995117188,-2,2,-2,1,0,0,-3,-2,1756999825382605075
0,4.860318899,20250904113025383,None,2,230.35494995117188,5,2,1,-2,-1,-6,-13,-2,1756999825382762908
0,4.86764431,20250904113025390,None,2,232.49668884277344,0,-3,-3,-1,0,6,14,1,1756999825390127897
0,4.867752314,20250904113025390,None,2,232.49668884277344,-2,-5,-1,0,-1,1,9,2,1756999825390260696
0,4.883048534,20250904113025405,None,2,232.020751953125,-1,-1,1,0,-4,0,-3,-5,1756999825405147790
0,4.883289099,20250904113025406,None,2,232.020751953125,0,5,0,3,6,0,-3,2,1756999825405382633
0,4.8983044620000005,20250904113025421,None,2,230.83090209960938,-5,0,-3,-1,0,-3,-1,-2,1756999825420701980
0,4.89848423,20250904113025421,None,2,230.83090209960938,1,-5,1,-2,1,-1,-2,-3,1756999825420845508
0,4.898943186,20250904113025421,None,2,230.83090209960938,-1,-3,0,0,-1,0,-1,-3,1756999825421483993
0,4.899044514,20250904113025421,None,2,230.83090209960938,-3,2,-1,-4,-2,2,-4,-2,1756999825421602249
0,4.9127001759999995,20250904113025435,None,2,231.3068389892578,1,3,0,0,-1,-1,0,0,1756999825435123205
0,4.912946224,20250904113025435,None,2,231.3068389892578,0,0,3,-2,-3,0,-2,0,1756999825435283899
0,4.920082808,20250904113025442,None,2,231.06886291503906,-1,1,-1,-2,-2,0,-1,-1,1756999825442569255
0,4.920210838,20250904113025442,None,2,231.06886291503906,0,-3,-1,-1,-3,-1,-2,-2,1756999825442703962
0,4.9275491240000004,20250904113025450,None,2,231.06886291503906,-1,-4,2,-1,1,-5,-8,-2,1756999825450054407
0,4.927649975,20250904113025450,None,2,231.06886291503906,-2,5,-2,0,1,5,16,1,1756999825450181484
0,4.942531824,20250904113025465,None,2,230.59292602539062,-2,0,-1,-1,-5,-2,-4,-2,1756999825465038061
0,4.9426088329999995,20250904113025465,None,2,230.59292602539062,0,-3,1,0,-1,-2,-5,-1,1756999825465189695
0,4.949958086,20250904113025472,None,2,232.020751953125,3,-1,-1,-1,-3,2,-1,-1,1756999825472494840
0,4.950055599,20250904113025472,None,2,232.020751953125,-5,2,-2,2,6,2,0,3,1756999825472616910
0,4.9575665,20250904113025480,None,2,230.83090209960938,1,-1,-4,-1,-1,-3,-9,-6,1756999825480055332
0,4.957686901,20250904113025480,None,2,230.83090209960938,-1,0,0,1,2,1,4,0,1756999825480186700
0,4.972690582,20250904113025495,None,2,232.020751953125,-1,-2,1,1,-1,-1,-3,-3,1756999825495137929
0,4.9728415009999996,20250904113025495,None,2,232.020751953125,-2,7,1,-4,-2,3,1,3,1756999825495337247
0,4.980085134,20250904113025502,None,2,230.59292602539062,-2,-8,-4,-3,-1,-1,0,-4,1756999825502600431
0,4.980176926,20250904113025502,None,2,230.59292602539062,2,-2,-4,-1,-1,-2,-3,-1,1756999825502758502
0,4.987663507,20250904113025510,None,2,231.5447998046875,-1,-1,-4,-1,-1,-1,1,-1,1756999825510179042
0,4.987761497,20250904113025510,None,2,231.5447998046875,0,3,0,0,1,1,-1,-3,1756999825510335922
0,5.002626657,20250904113025525,None,2,231.3068389892578,-4,-5,1,1,-5,-6,-12,0,1756999825525085926
0,5.002751589,20250904113025525,None,2,231.3068389892578,-1,-5,-2,-4,-1,3,8,-3,1756999825525253534
0,5.01031065,20250904113025533,None,2,231.3068389892578,-3,-1,1,0,1,1,2,1,1756999825532774925
0,5.011064768,20250904113025533,None,2,231.78277587890625,-3,-3,1,-3,-5,-5,-6,0,1756999825533102512
0,5.017971039,20250904113025540,None,2,231.78277587890625,-3,-1,0,2,5,1,3,0,1756999825540436744
0,5.018081188,20250904113025540,None,2,231.78277587890625,-5,1,0,-1,-3,2,-1,-1,1756999825540644407
0,5.033113003,20250904113025555,None,2,232.020751953125,2,-1,-1,0,1,0,-3,0,1756999825555601358
0,5.033241987,20250904113025555,None,2,232.020751953125,-3,3,0,-2,-1,-3,-8,-3,1756999825555817127
0,5.04046607,20250904113025563,None,2,230.59292602539062,0,2,-5,-1,-2,-1,1,-1,1756999825562984466
0,5.040653467,20250904113025563,None,2,230.59292602539062,-2,-6,-2,1,-1,0,1,4,1756999825563203096
0,5.047990799,20250904113025570,None,2,232.2587127685547,-2,-3,-3,-2,-3,0,0,-5,1756999825570515394
0,5.048156023,20250904113025570,None,2,232.2587127685547,-3,-3,0,0,1,-2,1,0,1756999825570736408
0,5.062998056,20250904113025585,None,2,230.83090209960938,3,5,0,0,-3,-1,-1,0,1756999825585467338
0,5.06309247,20250904113025585,None,2,230.83090209960938,3,-3,-1,1,0,1,-3,0,1756999825585674047
0,5.070491791,20250904113025593,None,2,232.020751953125,-2,-2,-1,-3,-1,-1,-8,-1,1756999825592965841
0,5.070641279,20250904113025593,None,2,232.020751953125,0,-6,0,1,2,2,9,1,1756999825593193054
0,5.077986717,20250904113025600,None,2,231.3068389892578,-1,1,-2,0,-2,0,-2,-1,1756999825600486755
0,5.078092575,20250904113025600,None,2,231.3068389892578,-2,-1,-1,-3,-7,0,-2,1,1756999825600687503
0,5.093044519,20250904113025615,None,2,231.5447998046875,2,9,-1,2,0,-1,-6,-1,1756999825615528821
0,5.093173504,20250904113025615,None,2,231.5447998046875,1,-3,2,1,2,0,0,-3,1756999825615749120
0,5.100477934,20250904113025623,None,2,231.5447998046875,-1,-2,-3,0,-1,-3,-4,0,1756999825622990369
0,5.100696087,20250904113025623,None,2,231.5447998046875,-1,2,-1,-3,-4,-2,-1,0,1756999825623212099
0,5.115391493,20250904113025638,None,2,232.2587127685547,3,1,1,1,0,0,2,0,1756999825637881278
0,5.115525246,20250904113025638,None,2,232.2587127685547,-2,-4,0,0,0,-4,-1,0,1756999825638088464
0,5.123026848,20250904113025645,None,2,230.35494995117188,-1,-6,0,1,-1,-2,-6,-3,1756999825645531654
0,5.123122454,20250904113025645,None,2,230.35494995117188,2,1,1,1,0,-1,5,5,1756999825645706892
0,5.129979134,20250904113025652,None,2,232.2587127685547,0,0,-1,-2,-4,0,-5,-3,1756999825652550697
0,5.130656719,20250904113025653,None,2,232.2587127685547,0,-7,-1,-4,-1,-1,-2,-2,1756999825652683973
0,5.137975931,20250904113025660,None,2,232.2587127685547,0,-2,-1,-2,-4,-4,-6,-3,1756999825660045862
0,5.13829875,20250904113025661,None,2,232.2587127685547,1,0,0,-1,3,2,12,1,1756999825660163402
0,5.161140442,20250904113025683,None,2,230.83090209960938,-3,-1,-1,-2,-1,-3,2,-3,1756999825683260440
0,5.161380291,20250904113025684,None,2,230.83090209960938,-3,0,-2,1,4,1,-1,-3,1756999825683405876
0,5.161768198,20250904113025684,None,2,230.83090209960938,1,0,-1,3,-3,-1,-5,0,1756999825684007167
0,5.161954403,20250904113025684,None,2,230.83090209960938,-2,2,-3,-1,0,-2,5,-1,1756999825684117317
0,5.175485134,20250904113025698,None,2,231.06886291503906,0,2,0,-1,2,1,0,-2,1756999825697550535
0,5.175750732,20250904113025698,None,2,231.06886291503906,-3,-6,-3,1,0,0,-2,-2,1756999825697671651
0,5.182935476,20250904113025705,None,2,231.78277587890625,-2,0,-2,0,0,-1,-4,1,1756999825705031633
0,5.183135271,20250904113025705,None,2,231.78277587890625,-3,-7,2,-3,-2,-3,-1,-6,1756999825705135107
0,5.190330744,20250904113025713,None,2,230.59292602539062,-1,0,0,-2,0,2,-1,-2,1756999825712541341
0,5.19058609,20250904113025713,None,2,230.59292602539062,0,2,0,-6,-2,3,-1,1,1756999825712650299
0,5.20531249,20250904113025728,None,2,230.35494995117188,-2,4,-2,1,-3,-3,-3,-4,1756999825727602481
0,5.205584049,20250904113025728,None,2,230.35494995117188,0,-10,-1,0,1,-1,5,0,1756999825727750539
0,5.212736607,20250904113025735,None,2,230.35494995117188,0,2,-4,-5,-1,-1,-12,-1,1756999825735080718
0,5.212938786,20250904113025735,None,2,230.35494995117188,3,4,-2,0,0,4,16,3,1756999825735269308
0,5.220158339,20250904113025742,None,2,232.020751953125,-2,0,-1,1,-3,-2,-3,-2,1756999825742581605
0,5.22034049,20250904113025743,None,2,232.020751953125,-1,1,-1,4,2,-3,0,2,1756999825742814064
0,5.235645056,20250904113025758,None,2,232.020751953125,-4,-6,0,-1,-2,-4,-6,-2,1756999825757981777
0,5.235817909,20250904113025758,None,2,232.020751953125,-5,-1,-1,-3,0,-3,0,-3,1756999825758202552
0,5.242659569,20250904113025765,None,2,230.59292602539062,1,7,1,-2,-2,1,0,0,1756999825765114784
0,5.242823362,20250904113025765,None,2,230.59292602539062,4,4,0,0,0,-1,-2,-1,1756999825765279293
0,5.2500107289999995,20250904113025772,None,2,231.78277587890625,-1,-6,-3,-1,0,-1,-1,-1,1756999825772528886
0,5.250128031,20250904113025772,None,2,231.78277587890625,1,-1,-3,-1,-3,1,0,1,1756999825772652149
0,5.265056848,20250904113025787,None,2,231.5447998046875,-1,-2,0,-1,-1,-4,0,-2,1756999825787545919
0,5.265273333,20250904113025788,None,2,231.5447998046875,-1,0,1,-2,1,0,0,-2,1756999825787672281
0,5.272604704,20250904113025795,None,2,231.3068389892578,-1,0,1,-1,-1,0,1,1,1756999825795064687
0,5.27272892,20250904113025795,None,2,231.3068389892578,0,2,-1,0,-1,-2,1,-3,1756999825795220851
0,5.280103683,20250904113025802,None,2,232.2587127685547,-1,6,1,-1,1,0,-7,-5,1756999825802592992
0,5.280224085,20250904113025802,None,2,232.2587127685547,0,-7,-2,-2,-7,0,-1,0,1756999825802736282
0,5.295066118,20250904113025817,None,2,231.06886291503906,1,0,-2,-1,-5,1,12,3,1756999825817559480
0,5.29516387,20250904113025817,None,2,231.06886291503906,-1,2,-2,1,4,2,-4,-2,1756999825817689180
0,5.302574635,20250904113025825,None,2,232.2587127685547,0,1,-3,-1,0,0,0,-1,1756999825825087785
0,5.302683592,20250904113025825,None,2,232.2587127685547,1,-1,-1,1,-2,-1,-4,-4,1756999825825218200
0,5.310461521,20250904113025833,None,2,231.06886291503906,0,0,-4,-4,-2,-4,-2,-1,1756999825832556009
0,5.310743332,20250904113025833,None,2,231.06886291503906,1,-3,0,-1,-2,-1,-1,-3,1756999825832716941
0,5.325096607,20250904113025847,None,2,230.59292602539062,-1,-4,-1,-1,-3,-2,-7,1,1756999825847593069
0,5.325236082,20250904113025847,None,2,230.59292602539062,-1,4,0,1,0,-3,3,1,1756999825847722768
0,5.332571983,20250904113025855,None,2,230.59292602539062,-1,-1,-1,-1,2,0,2,2,1756999825855076313
0,5.332725525,20250904113025855,None,2,230.59292602539062,-4,-3,1,-4,0,-1,-2,-4,1756999825855203628
0,5.34000802,20250904113025862,None,2,231.78277587890625,-1,2,0,-3,-1,0,-3,-1,1756999825862535953
0,5.340107679,20250904113025862,None,2,231.78277587890625,0,1,-1,-2,0,0,2,0,1756999825862650156
0,5.355111361,20250904113025877,None,2,231.5447998046875,2,-3,-1,-2,-1,1,-3,1,1756999825877603054
0,5.355237246,20250904113025877,None,2,231.5447998046875,-3,0,-5,-1,-1,-1,-2,1,1756999825877741813
0,5.362536669,20250904113025885,None,2,232.020751953125,1,1,1,-1,-3,-1,-5,-3,1756999825885034561
0,5.362630606,20250904113025885,None,2,232.020751953125,3,-1,-2,0,2,2,11,2,1756999825885089397
0,5.370000124,20250904113025892,None,2,232.020751953125,-3,0,0,-1,-3,-3,-3,1,1756999825892547845
0,5.370090008,20250904113025892,None,2,232.020751953125,-4,-2,-1,2,2,-2,-9,-6,1756999825892663955
0,5.384995222,20250904113025907,None,2,232.49668884277344,1,0,-1,1,-3,-2,-2,-2,1756999825907516717
0,5.385139942,20250904113025907,None,2,232.49668884277344,-2,-1,-3,-2,-1,1,-5,-2,1756999825907632589
0,5.392565966,20250904113025915,None,2,230.59292602539062,-1,0,0,-3,-1,-1,2,1,1756999825915045261
0,5.392700434,20250904113025915,None,2,230.59292602539062,0,4,-2,2,1,-3,-2,0,1756999825915152072
0,5.399940491,20250904113025922,None,2,232.2587127685547,2,0,-1,-2,-1,0,-1,-2,1756999825922466754
0,5.400087118,20250904113025922,None,2,232.2587127685547,-3,0,-1,-2,-2,-2,-2,-5,1756999825922563552
0,5.415258408,20250904113025938,None,2,230.83090209960938,-3,-4,-1,2,3,1,-2,-1,1756999825937782764
0,5.415400267,20250904113025938,None,2,230.83090209960938,0,2,-1,-1,-1,-2,-2,0,1756999825937915325
0,5.422685862,20250904113025945,None,2,231.78277587890625,-3,-3,-1,1,0,0,-3,-2,1756999825945121288
0,5.422828197,20250904113025945,None,2,231.78277587890625,-2,-2,-2,2,-1,-6,-11,-1,1756999825945291996
0,5.43013835,20250904113025952,None,2,231.5447998046875,-2,-3,0,-2,2,6,16,-3,1756999825952564239
0,5.430329561,20250904113025953,None,2,231.5447998046875,0,-10,-1,1,-1,1,-1,1,1756999825952679395
0,5.453033924,20250904113025975,None,2,230.83090209960938,0,5,2,3,4,0,-6,0,1756999825975576162
0,5.453130007,20250904113025975,None,2,230.83090209960938,-4,-2,0,0,2,1,1,0,1756999825975668907
0,5.453689098,20250904113025976,None,2,230.83090209960938,1,-4,-1,-3,-2,-3,-2,0,1756999825976353645
0,5.45376873,20250904113025976,None,2,230.83090209960938,1,1,-1,-3,-1,1,-4,-6,1756999825976432323
0,5.4600260259999995,20250904113025982,None,2,230.83090209960938,4,5,0,-2,0,-3,-1,-4,1756999825982590913
0,5.460213423,20250904113025982,None,2,230.83090209960938,1,1,-3,2,-2,1,-1,1,1756999825982713460
0,5.47530365,20250904113025998,None,2,230.59292602539062,0,-3,-1,0,1,2,-6,-4,1756999825997673273
0,5.475492477,20250904113025998,None,2,230.59292602539062,-1,0,-1,-4,0,0,5,2,1756999825997848033
0,5.482629061,20250904113026005,None,2,231.5447998046875,-1,-4,-2,1,-5,-2,-1,-1,1756999826005118608
0,5.482754707,20250904113026005,None,2,231.5447998046875,-1,-1,1,0,-3,0,-4,-2,1756999826005256891
0,5.489775181,20250904113026012,None,2,230.59292602539062,-3,2,-2,-1,0,-7,-1,0,1756999826012400388
0,5.489846468,20250904113026012,None,2,230.59292602539062,-2,-5,-1,-2,0,-7,-11,-1,1756999826012492656
0,5.50485158,20250904113026027,None,2,231.78277587890625,1,-1,-3,-3,0,3,10,-3,1756999826027458906
0,5.504924297,20250904113026027,None,2,231.78277587890625,2,3,-2,-1,-5,-2,-1,0,1756999826027556419
0,5.512308836,20250904113026035,None,2,231.06886291503906,-1,-3,1,-1,1,0,2,-2,1756999826034947872
0,5.512370586,20250904113026035,None,2,231.06886291503906,1,1,-1,-2,0,-1,0,-1,1756999826035035133
0,5.519795895,20250904113026042,None,2,231.3068389892578,-3,-3,-2,-3,-3,0,-4,-1,1756999826042416810
0,5.51990366,20250904113026042,None,2,231.3068389892578,-1,0,-2,0,-3,-2,-2,1,1756999826042513847
0,5.535014391,20250904113026057,None,2,230.83090209960938,-1,-9,-1,0,-3,2,2,1,1756999826057600259
0,5.535097122,20250904113026057,None,2,230.83090209960938,0,2,0,-1,-1,-1,0,-1,1756999826057690620
0,5.542689562,20250904113026065,None,2,230.83090209960938,0,-8,0,3,-1,1,-3,-2,1756999826065120458
0,5.542776346,20250904113026065,None,2,230.83090209960938,-2,0,2,1,2,0,-2,1,1756999826065220117
0,5.550106525,20250904113026072,None,2,231.78277587890625,-6,-1,-1,-4,0,-1,-1,-1,1756999826072408676
0,5.5502901080000004,20250904113026073,None,2,231.78277587890625,0,2,0,-3,-1,-4,-3,-7,1756999826072517156
0,5.565348625,20250904113026088,None,2,232.020751953125,0,-3,-1,1,2,-1,8,2,1756999826087534666
0,5.565627098,20250904113026088,None,2,232.020751953125,-1,-1,0,0,-2,-3,0,-2,1756999826087720394
0,5.572482347,20250904113026095,None,2,232.020751953125,-1,1,-3,0,4,0,-2,-1,1756999826094927787
0,5.572641611,20250904113026095,None,2,232.020751953125,-2,1,0,0,0,-5,-14,-7,1756999826095030069
0,5.587533712,20250904113026110,None,2,232.020751953125,2,-1,-1,-2,1,5,20,1,1756999826109983205
0,5.5876996519999995,20250904113026110,None,2,232.020751953125,-1,0,-2,2,-2,-1,-3,1,1756999826110087394
0,5.5949151520000004,20250904113026117,None,2,231.06886291503906,-3,-2,0,-5,-1,1,1,4,1756999826117452144
0,5.595050573,20250904113026117,None,2,231.06886291503906,3,-2,-1,1,-1,-2,-4,-2,1756999826117557048
0,5.602398157,20250904113026125,None,2,231.5447998046875,2,2,1,0,-3,-2,-5,-1,1756999826124875068
0,5.602484226,20250904113026125,None,2,231.5447998046875,0,1,1,0,-2,-2,1,1,1756999826124952316
0,5.60976696,20250904113026132,None,2,231.5447998046875,-3,-1,-1,-2,-1,-3,-4,0,1756999826132333278
0,5.609822512,20250904113026132,None,2,231.5447998046875,-3,-2,-4,-2,-2,-3,-1,1,1756999826132400989
0,5.624722004,20250904113026147,None,2,231.3068389892578,-1,-6,0,-4,0,-2,-1,-1,1756999826147336006
0,5.624787092,20250904113026147,None,2,231.3068389892578,-1,-2,2,2,2,0,1,0,1756999826147410154
0,5.632271528,20250904113026155,None,2,232.020751953125,0,-2,-1,1,-3,2,1,3,1756999826154861211
0,5.632346392,20250904113026155,None,2,232.020751953125,1,3,-2,-4,-1,0,-4,0,1756999826154933214
0,5.639914989,20250904113026162,None,2,230.59292602539062,-3,-8,-3,-4,-7,-1,-3,-3,1756999826162371158
0,5.640034914,20250904113026162,None,2,230.59292602539062,-1,0,-1,1,2,0,-5,-3,1756999826162451267
0,5.655183792,20250904113026177,None,2,232.2587127685547,0,2,3,-2,1,1,11,2,1756999826177601337
0,5.655353546,20250904113026178,None,2,232.2587127685547,2,8,-3,2,-1,-4,-4,1,1756999826177747488
0,5.670922518,20250904113026193,None,2,232.020751953125,-2,-12,-4,-3,-1,-3,-2,-2,1756999826193350315
0,5.6711483000000005,20250904113026193,None,2,232.020751953125,-4,2,-1,0,-1,-3,-4,0,1756999826193560123
0,5.671839237,20250904113026194,None,2,232.020751953125,0,2,-1,0,-2,-4,-3,-4,1756999826194143295
0,5.672080278,20250904113026194,None,2,232.020751953125,0,1,1,-3,-2,1,-1,0,1756999826194311380
0,5.68526268,20250904113026208,None,2,231.5447998046875,1,-2,-1,0,-1,-2,-1,-3,1756999826207657575
0,5.685457945,20250904113026208,None,2,231.5447998046875,0,1,0,-3,-2,2,-2,1,1756999826207813739
0,5.692808628,20250904113026215,None,2,231.5447998046875,-5,0,0,-1,2,-1,-1,-3,1756999826215199470
0,5.692981482,20250904113026215,None,2,231.5447998046875,2,3,-1,-3,1,1,2,-2,1756999826215411663
0,5.700526237,20250904113026223,None,2,231.5447998046875,1,-5,-1,1,3,0,1,3,1756999826222745180
0,5.700762033,20250904113026223,None,2,231.5447998046875,-2,1,-1,-2,-1,-1,1,-1,1756999826222975969
0,5.715313435,20250904113026238,None,2,232.020751953125,-2,-6,0,-6,-4,-9,-13,1,1756999826237713813
0,5.715546608,20250904113026238,None,2,232.020751953125,-1,0,-1,0,2,6,20,-2,1756999826237884044
0,5.722737789,20250904113026245,None,2,230.35494995117188,-1,2,-6,-2,-1,-1,0,0,1756999826245171785
0,5.722913504,20250904113026245,None,2,230.35494995117188,-2,-1,-1,-1,-2,-1,-1,-1,1756999826245350360
0,5.730590105,20250904113026253,None,2,230.35494995117188,0,-1,1,-2,-2,0,-2,-1,1756999826252797603
0,5.730847359,20250904113026253,None,2,230.35494995117188,1,-1,0,-1,-3,0,-2,0,1756999826253080606
0,5.745328665,20250904113026268,None,2,230.35494995117188,-1,0,1,0,-1,-3,-4,0,1756999826267743349
0,5.74554491,20250904113026268,None,2,230.35494995117188,2,7,2,3,1,1,-2,-4,1756999826267923116
0,5.753123045,20250904113026275,None,2,232.020751953125,-3,-8,-4,-1,0,-2,-3,1,1756999826275376319
0,5.753401995,20250904113026276,None,2,232.020751953125,-5,-6,-2,1,-1,-2,-1,0,1756999826275612592
0,5.760325909,20250904113026283,None,2,231.06886291503906,1,3,1,-2,-3,-2,-3,1,1756999826282727003
0,5.760705471,20250904113026283,None,2,231.06886291503906,-1,2,-1,-1,-2,0,0,1,1756999826282890081
0,5.775421619,20250904113026298,None,2,231.78277587890625,1,1,0,-2,-2,-3,-4,0,1756999826297696590
0,5.775781631,20250904113026298,None,2,231.78277587890625,2,-2,1,3,-1,0,0,-2,1756999826297871589
0,5.782963753,20250904113026305,None,2,231.3068389892578,0,-5,-1,-3,-4,0,-1,0,1756999826305290460
0,5.783162355,20250904113026305,None,2,231.3068389892578,-1,-3,-1,-1,4,1,-3,-4,1756999826305499076
0,5.790242672,20250904113026312,None,2,231.3068389892578,1,-5,2,0,2,1,6,3,1756999826312675476
0,5.790429592,20250904113026313,None,2,231.3068389892578,-1,6,0,0,2,-2,1,1,1756999826312842607
0,5.805721045,20250904113026328,None,2,230.59292602539062,-5,-5,-1,-3,-2,-2,-3,0,1756999826327893733
0,5.806010723,20250904113026328,None,2,230.59292602539062,-1,-6,-4,-2,1,-1,-2,2,1756999826328119754
0,5.81303668,20250904113026335,None,2,230.59292602539062,-4,-5,1,0,0,-1,-2,-5,1756999826335355043
0,5.813268661,20250904113026336,None,2,230.59292602539062,-4,2,0,2,1,1,5,-6,1756999826335560560
0,5.8204455379999995,20250904113026343,None,2,232.020751953125,-2,0,1,0,1,-2,-1,0,1756999826342816352
0,5.821080208,20250904113026343,None,2,232.020751953125,4,4,1,-2,-3,0,0,-2,1756999826343070268
0,5.835517168,20250904113026358,None,2,232.020751953125,2,1,0,-2,0,2,-1,-1,1756999826357798814
0,5.8357646469999995,20250904113026358,None,2,232.020751953125,0,-1,-2,-2,-1,0,-1,-1,1756999826358039140
0,5.842772722,20250904113026365,None,2,230.59292602539062,4,3,-1,0,0,0,5,1,1756999826365245103
0,5.842960119,20250904113026365,None,2,230.59292602539062,-2,-3,-1,-2,-3,0,0,1,1756999826365411281
0,5.850356102,20250904113026373,None,2,230.59292602539062,-2,-2,-3,-1,0,-2,-12,-2,1756999826372698307
0,5.850918055,20250904113026373,None,2,231.78277587890625,0,-4,2,0,-1,5,8,1,1756999826372965335
0,5.864772081,20250904113026387,None,2,231.3068389892578,4,-1,-3,3,-1,0,2,-5,1756999826387396812
0,5.864832163,20250904113026387,None,2,231.3068389892578,1,5,-2,-1,-2,-2,-5,-1,1756999826387486696
0,5.872204781,20250904113026394,None,2,231.3068389892578,1,0,-2,-3,-2,0,-4,1,1756999826394872903
0,5.872266531,20250904113026394,None,2,231.3068389892578,-3,-2,-2,0,0,-1,-3,1,1756999826394951343
0,5.879675388,20250904113026402,None,2,232.020751953125,-1,0,-2,0,-3,-1,1,-1,1756999826402346134
0,5.879735708,20250904113026402,None,2,232.020751953125,-2,5,-1,-1,-2,1,0,-1,1756999826402423381
0,5.89467597,20250904113026417,None,2,231.06886291503906,6,-2,-2,-4,-1,0,-2,0,1756999826417336225
0,5.894733667,20250904113026417,None,2,231.06886291503906,-2,-3,-4,-3,1,-1,-2,-3,1756999826417420625
0,5.902184725,20250904113026424,None,2,232.49668884277344,-1,-1,-2,-1,-5,-2,-4,-3,1756999826424854278
0,5.902246475,20250904113026424,None,2,232.49668884277344,2,4,0,-1,0,-2,2,4,1756999826424934387
0,5.90962863,20250904113026432,None,2,230.59292602539062,0,2,0,-2,0,0,0,-1,1756999826432310342
0,5.909687757,20250904113026432,None,2,230.59292602539062,-1,-4,0,0,-7,-1,-3,-3,1756999826432378768
0,5.924699306,20250904113026447,None,2,230.35494995117188,-4,-4,-2,-1,2,-2,-10,-1,1756999826447367429
0,5.924753666,20250904113026447,None,2,230.35494995117188,1,5,1,-1,0,5,10,1,1756999826447442293
0,5.932224989,20250904113026454,None,2,232.020751953125,-1,2,0,-1,0,-1,2,-5,1756999826454888343
0,5.932284832,20250904113026455,None,2,232.020751953125,-2,0,-2,-4,-2,1,-2,0,1756999826454973697
0,5.939654827,20250904113026462,None,2,232.020751953125,2,1,2,0,0,-2,-5,-1,1756999826462334632
0,5.939716101,20250904113026462,None,2,232.020751953125,0,2,0,0,0,-3,0,0,1756999826462403774
0,5.954676867,20250904113026477,None,2,231.3068389892578,0,1,-1,-1,-1,1,-2,-1,1756999826477335691
0,5.954734087,20250904113026477,None,2,231.3068389892578,-5,2,-1,-3,-4,2,0,-2,1756999826477420330
0,5.962161779,20250904113026484,None,2,231.5447998046875,-1,-4,-1,-2,-2,1,3,1,1756999826484837055
0,5.962195873,20250904113026484,None,2,231.5447998046875,2,0,0,-3,-2,-1,-1,1,1756999826484863519
0,5.969633818,20250904113026492,None,2,230.35494995117188,-4,-3,-2,-3,0,-2,-2,-2,1756999826492312908
0,5.969691992,20250904113026492,None,2,230.35494995117188,-1,-6,0,1,1,-4,-3,-2,1756999826492382287
0,5.98473072,20250904113026507,None,2,232.020751953125,1,1,-3,0,0,0,0,0,1756999826507382631
0,5.984780312,20250904113026507,None,2,232.020751953125,1,-1,-3,-1,-2,-3,-2,0,1756999826507467269
0,5.992156744,20250904113026514,None,2,230.35494995117188,1,4,2,1,-4,3,0,3,1756999826514837980
0,5.992217302,20250904113026514,None,2,230.35494995117188,-2,-7,-1,0,-3,-5,-11,-1,1756999826514909505
0,5.999653339,20250904113026522,None,2,232.020751953125,0,-5,-2,-2,1,3,13,-2,1756999826522338628
0,5.999715567,20250904113026522,None,2,232.020751953125,-2,6,1,2,0,-2,-1,2,1756999826522409677
0,6.01470685,20250904113026537,None,2,230.35494995117188,-4,-11,2,-1,-2,1,-1,-1,1756999826537339448
0,6.014759064,20250904113026537,None,2,230.35494995117188,3,0,0,-6,-1,-3,-4,1,1756999826537424325
0,6.022155285,20250904113026544,None,2,231.78277587890625,1,4,3,-2,-3,-2,-3,1,1756999826544838190
0,6.022215605,20250904113026544,None,2,231.78277587890625,-3,1,-1,-3,-3,0,-2,-3,1756999826544908761
0,6.029628038,20250904113026552,None,2,230.35494995117188,-3,4,0,1,-3,0,-1,-1,1756999826552312612
0,6.029686689,20250904113026552,None,2,230.35494995117188,-4,-2,0,0,0,0,2,3,1756999826552381277
0,6.044742346,20250904113026567,None,2,231.5447998046875,-4,-6,-2,-3,-4,0,0,-1,1756999826567378759
0,6.044792414,20250904113026567,None,2,231.5447998046875,0,-1,2,1,-4,1,-2,-3,1756999826567464113
0,6.052180529,20250904113026574,None,2,231.5447998046875,-1,3,-4,0,-2,-3,-1,-7,1756999826574861764
0,6.052244663,20250904113026574,None,2,231.5447998046875,0,0,-3,-2,-1,0,-1,-1,1756999826574934720
0,6.059656382,20250904113026582,None,2,230.83090209960938,-1,-2,-1,0,-1,0,-1,1,1756999826582343339
0,6.059719563,20250904113026582,None,2,230.83090209960938,-3,-1,-1,-1,-5,-2,-2,0,1756999826582412958
0,6.075211287,20250904113026597,None,2,230.35494995117188,1,4,-1,1,3,-1,-3,-3,1756999826597862482
0,6.075263977,20250904113026598,None,2,230.35494995117188,-1,-5,0,4,1,1,16,1,1756999826597947835
0,6.08215642,20250904113026604,None,2,232.2587127685547,2,6,-2,0,0,-2,-1,3,1756999826604837656
0,6.082217932,20250904113026604,None,2,232.2587127685547,-2,-8,-3,-2,0,-1,-4,-1,1756999826604908943
0,6.089627743,20250904113026612,None,2,230.35494995117188,0,-5,-1,-3,-3,1,-1,-1,1756999826612304449
0,6.089684963,20250904113026612,None,2,230.35494995117188,-3,1,1,-1,-1,-1,-1,-1,1756999826612376689
0,6.104669094,20250904113026627,None,2,232.020751953125,-2,1,0,-2,1,-1,-1,-3,1756999826627349853
0,6.104729652,20250904113026627,None,2,232.020751953125,-1,-1,1,0,4,-1,0,1,1756999826627421617
0,6.112152338,20250904113026634,None,2,231.3068389892578,-2,-1,-4,-4,-1,1,-4,-2,1756999826634836912
0,6.112213135,20250904113026634,None,2,231.3068389892578,-1,4,-4,-2,-3,-2,0,-2,1756999826634906768
0,6.127206802,20250904113026649,None,2,231.5447998046875,0,-4,-2,-1,-1,0,1,-1,1756999826649861097
0,6.127261877,20250904113026649,None,2,231.5447998046875,-1,-3,-3,-2,2,0,2,-2,1756999826649946451
0,6.13463521,20250904113026657,None,2,231.5447998046875,1,1,-1,2,-2,-1,-1,1,1756999826657312393
0,6.134693384,20250904113026657,None,2,231.5447998046875,0,-3,-2,0,-4,-1,0,-1,1756999826657385587
