gt,time_elapsed,current_time,current_task,motor_position,emg0,emg1,emg2,emg3,emg4,emg5,emg6,emg7,emg_timer_stamp,futek
0,0.040067434,20250904111700820,None,4769,1,0,0,-1,-1,-1,-3,-3,1756999020820517301,
0,0.040191889,20250904111700820,None,4769,-3,-1,3,-1,-2,0,-1,-1,1756999020820638418,
0,0.041165113,20250904111700821,None,4769,1,1,0,-4,-1,-3,-5,-3,1756999020821533918,9.04286003112793
0,0.041314125,20250904111700822,None,4769,-3,-3,0,1,-1,0,-2,0,1756999020821829557,9.04286003112793
0,0.046921968,20250904111700827,None,4769,1,-1,0,-3,0,-2,-2,0,1756999020827354907,9.04286003112793
0,0.047079325,20250904111700827,None,4769,1,1,-1,-3,0,1,0,1,1756999020827470064,9.04286003112793
0,0.061990976,20250904111700842,None,4766,0,-3,-2,-2,0,-1,-2,-3,1756999020842429161,6.425189971923828
0,0.062143087,20250904111700842,None,4766,-5,-1,1,3,0,0,1,-1,1756999020842562675,6.425189971923828
0,0.06932497,20250904111700850,None,4765,0,-2,1,-4,-3,-2,-3,-1,1756999020849853038,14.75413990020752
0,0.069414616,20250904111700850,None,4765,-2,-2,-3,-2,-3,-5,-1,-1,1756999020849961280,14.75413990020752
0,0.076853275,20250904111700857,None,4764,0,-1,-1,0,-1,0,1,0,1756999020857383251,14.75413990020752
0,0.07696557,20250904111700857,None,4764,-2,-2,1,-1,-1,-3,0,-2,1756999020857492923,14.75413990020752
0,0.091714144,20250904111700872,None,4763,2,0,-1,3,4,-3,0,0,1756999020872279882,14.75413990020752
0,0.091789961,20250904111700872,None,4763,-1,-2,-1,-1,1,1,-1,0,1756999020872377157,14.75413990020752
0,0.099248409,20250904111700879,None,4762,-1,1,-1,-1,0,-5,-2,-1,1756999020879704475,8.328949928283691
0,0.099308729,20250904111700880,None,4762,-2,0,0,1,-1,0,1,2,1756999020879783868,8.328949928283691
0,0.106833458,20250904111700887,None,4761,-2,4,0,-4,-2,-3,-1,-2,1756999020887343883,11.660530090332031
0,0.106930017,20250904111700887,None,4761,1,-1,-2,1,0,1,-1,0,1756999020887454271,11.660530090332031
0,0.122211695,20250904111700902,None,4760,3,-1,-2,-2,-4,-3,-3,0,1756999020902553796,10.708649635314941
0,0.122358084,20250904111700903,None,4760,3,-2,-2,0,2,0,3,5,1756999020902703762,10.708649635314941
0,0.129496336,20250904111700910,None,4759,-1,-2,1,0,1,-1,-1,0,1756999020909909725,8.804889678955078
0,0.129640818,20250904111700910,None,4759,-2,-3,-1,-4,-3,1,-4,-4,1756999020910023450,8.804889678955078
0,0.144550085,20250904111700925,None,4756,-3,-2,-2,-1,-3,-2,-5,-1,1756999020924932003,6.425189971923828
0,0.144686222,20250904111700925,None,4756,1,3,0,-2,-1,-4,0,-1,1756999020925068140,6.425189971923828
0,0.151869774,20250904111700932,None,4755,-1,1,2,0,1,1,0,-1,1756999020932368278,6.425189971923828
0,0.151985168,20250904111700932,None,4755,0,-2,-2,0,0,0,2,0,1756999020932496309,6.425189971923828
0,0.159589767,20250904111700940,None,4754,-1,-1,-1,-2,-2,-4,-2,1,1756999020939977645,14.75413990020752
0,0.159711838,20250904111700940,None,4754,1,1,3,-1,2,-2,1,-2,1756999020940142154,14.75413990020752
0,0.166960239,20250904111700947,None,4754,-1,-2,0,-1,3,-1,-1,-2,1756999020947376728,5.949249744415283
0,0.167129993,20250904111700947,None,4754,-3,0,2,0,0,-2,1,0,1756999020947493314,5.949249744415283
0,0.182316065,20250904111700963,None,4752,0,1,-2,1,1,0,-3,0,1756999020962440490,7.8530097007751465
0,0.182540178,20250904111700963,None,4752,3,2,-1,-2,-1,0,-1,-3,1756999020962595939,7.8530097007751465
0,0.189679384,20250904111700970,None,4751,-4,1,1,0,-3,-2,4,1,1756999020969911813,12.136469841003418
0,0.189876318,20250904111700970,None,4751,2,-2,-1,-4,-1,1,0,-1,1756999020970030069,12.136469841003418
0,0.197418928,20250904111700978,None,4750,-3,-1,-1,0,4,-2,-2,-1,1756999020977569818,10.232709884643555
0,0.197638988,20250904111700978,None,4750,1,-3,-2,-3,-3,-1,-2,-1,1756999020977746725,10.232709884643555
0,0.212835789,20250904111700993,None,4749,-1,-2,2,1,-2,1,0,-1,1756999020992903709,9.280829429626465
0,0.213073969,20250904111700993,None,4749,-1,0,-2,-1,-2,0,-2,-1,1756999020993181705,9.280829429626465
0,0.21990633,20250904111701000,None,4747,-3,-3,-3,0,-2,-1,0,-5,1756999020999907493,12.850379943847656
0,0.220139265,20250904111701000,None,4747,0,-1,-2,0,-3,-3,-3,-1,1756999021000051021,12.850379943847656
0,0.227369547,20250904111701008,None,4746,-4,0,0,2,0,0,0,1,1756999021007416725,6.6631598472595215
0,0.227626562,20250904111701008,None,4746,1,-3,-2,1,0,-2,-4,-1,1756999021007533788,6.6631598472595215
0,0.242442131,20250904111701023,None,4745,-1,-1,0,-1,-2,2,3,1,1756999021022452831,14.75413990020752
0,0.24291873,20250904111701023,None,4744,-2,0,-4,2,-1,-1,-2,-1,1756999021022586107,14.75413990020752
0,0.249895811,20250904111701030,None,4744,-2,-2,0,-5,-1,1,0,2,1756999021029915809,6.187219619750977
0,0.250127554,20250904111701030,None,4744,-2,-3,-3,3,-4,-3,-3,0,1756999021030035495,6.187219619750977
0,0.264957428,20250904111701045,None,4742,-1,-2,1,-2,-1,-2,2,-3,1756999021044949769,6.901129722595215
0,0.26520133,20250904111701045,None,4742,0,1,-1,-1,1,-4,-3,-2,1756999021045086622,6.901129722595215
0,0.2803092,20250904111701061,None,4740,4,0,-3,3,0,-3,-3,0,1756999021060579776,13.088349342346191
0,0.280588388,20250904111701061,None,4740,-1,-2,-1,-6,-2,-3,-2,-1,1756999021060738325,13.088349342346191
0,0.281460047,20250904111701062,None,4740,0,-1,0,-1,0,-1,-2,1,1756999021061372995,9.518799781799316
0,0.281768322,20250904111701062,None,4740,-3,1,0,-1,-1,-1,0,-2,1756999021061558246,9.518799781799316
0,0.294934273,20250904111701075,None,4739,-3,1,3,-2,1,3,2,-4,1756999021074951171,9.994739532470703
0,0.29515171,20250904111701075,None,4739,-2,-1,-1,0,-2,0,-3,-2,1756999021075085163,9.994739532470703
0,0.30189681,20250904111701082,None,4737,1,0,-2,0,0,-3,-1,1,1756999021082370758,12.612409591674805
0,0.302030325,20250904111701082,None,4737,-2,-2,0,-4,-2,-3,-1,-2,1756999021082479000,12.612409591674805
0,0.309344053,20250904111701090,None,4736,-3,0,-1,0,-2,-3,-1,-2,1756999021089874267,6.6631598472595215
0,0.309453964,20250904111701090,None,4736,0,-2,-1,-1,0,1,-1,-1,1756999021089988470,6.6631598472595215
0,0.324300289,20250904111701105,None,4735,1,0,0,2,1,-4,-2,0,1756999021104814052,14.516169548034668
0,0.324400425,20250904111701105,None,4735,0,1,-2,-3,0,-2,-3,-2,1756999021104925394,14.516169548034668
0,0.331875801,20250904111701112,None,4734,1,1,-2,-3,1,-2,2,1,1756999021112399339,5.949249744415283
0,0.331973076,20250904111701112,None,4734,0,-5,0,-2,0,0,0,-1,1756999021112540960,5.949249744415283
0,0.339422464,20250904111701120,None,4733,-2,-3,1,1,-3,-2,-2,1,1756999021119886398,14.516169548034668
0,0.339568138,20250904111701120,None,4733,1,2,-2,-2,-1,-1,0,-3,1756999021120029687,14.516169548034668
0,0.354391098,20250904111701135,None,4731,-3,-2,-1,1,-1,3,1,1,1756999021134874820,13.564290046691895
0,0.354494572,20250904111701135,None,4731,0,3,-1,-1,0,-1,-1,0,1756999021135015249,13.564290046691895
0,0.361896276,20250904111701142,None,4731,0,-2,-1,-2,-3,-1,0,0,1756999021142385959,13.564290046691895
0,0.361996412,20250904111701142,None,4731,1,1,0,-2,-3,-2,-1,-2,1756999021142528295,13.564290046691895
0,0.36956954,20250904111701150,None,4730,-3,0,0,0,0,-3,-3,-1,1756999021149874448,9.280829429626465
0,0.369820595,20250904111701150,None,4730,0,-1,0,1,-1,-5,0,0,1756999021150009393,9.280829429626465
0,0.38448286,20250904111701165,None,4727,0,-2,-1,1,-1,-1,0,-2,1756999021164891719,11.184589385986328
0,0.384661436,20250904111701165,None,4727,2,-1,-4,0,0,1,-4,-3,1756999021165050983,11.184589385986328
0,0.391957283,20250904111701172,None,4727,2,1,-3,1,-2,-2,-1,0,1756999021172387361,8.09097957611084
0,0.392085791,20250904111701172,None,4727,2,2,0,1,-1,-2,-1,5,1756999021172523260,8.09097957611084
0,0.399401665,20250904111701180,None,4727,-5,1,-1,-2,-2,-2,-1,-4,1756999021179836988,8.09097957611084
0,0.399576187,20250904111701180,None,4727,-1,1,1,-1,-2,-3,-1,0,1756999021179960489,8.09097957611084
0,0.414624452,20250904111701195,None,4724,-5,0,0,1,1,0,-1,0,1756999021194936037,5.949249744415283
0,0.414761066,20250904111701195,None,4724,0,0,-1,3,0,-3,2,-2,1756999021195101737,5.949249744415283
0,0.422289371,20250904111701203,None,4723,-2,-1,1,-1,-2,2,-1,2,1756999021202639102,14.516169548034668
0,0.422403097,20250904111701203,None,4723,1,-1,0,-4,-3,1,-4,-2,1756999021202810525,14.516169548034668
0,0.429432154,20250904111701210,None,4722,1,0,-3,2,1,2,-1,1,1756999021209872722,6.187219619750977
0,0.429599047,20250904111701210,None,4722,-1,-1,-4,-3,-2,-2,-4,-7,1756999021210035800,6.187219619750977
0,0.444402695,20250904111701225,None,4721,-2,-3,2,0,-5,-1,-1,1,1756999021224829912,13.326319694519043
0,0.444551229,20250904111701225,None,4721,-3,-3,0,-2,-1,-3,0,1,1756999021224950313,13.326319694519043
0,0.451885462,20250904111701232,None,4720,-3,-2,-2,-2,2,2,0,0,1756999021232307672,8.804889678955078
0,0.452076435,20250904111701232,None,4720,0,2,-3,-1,1,0,-1,0,1756999021232434272,8.804889678955078
0,0.459347248,20250904111701240,None,4719,-1,1,-1,0,-4,-4,1,0,1756999021239805459,10.946619987487793
0,0.459462643,20250904111701240,None,4719,0,1,-1,-2,-1,-1,-1,0,1756999021239940404,10.946619987487793
0,0.474372387,20250904111701255,None,4717,-3,-4,-4,-1,2,-1,-2,-1,1756999021254826307,11.660530090332031
0,0.474534273,20250904111701255,None,4717,-3,-1,0,1,0,0,-1,-1,1756999021254946470,11.660530090332031
0,0.482182026,20250904111701262,None,4717,-1,0,-1,-1,-3,1,-1,-1,1756999021262554883,8.09097957611084
0,0.482389927,20250904111701263,None,4717,4,-1,0,-2,-1,0,-1,1,1756999021262746572,8.09097957611084
0,0.489358902,20250904111701270,None,4715,2,-2,-2,-3,-1,-1,1,0,1756999021269768238,14.040229797363281
0,0.48947978,20250904111701270,None,4715,0,2,-1,2,-3,-1,0,-3,1756999021269893169,14.040229797363281
0,0.504278421,20250904111701285,None,4713,-1,0,-1,0,-2,-1,-1,0,1756999021284789800,14.75413990020752
0,0.504394054,20250904111701285,None,4713,-1,-1,-4,-3,0,-2,0,2,1756999021284904956,14.75413990020752
0,0.511712313,20250904111701292,None,4712,-3,0,-1,0,1,0,-7,-3,1756999021292279243,14.75413990020752
0,0.511801243,20250904111701292,None,4712,1,-2,0,-1,-1,0,-1,1,1756999021292392969,14.75413990020752
0,0.519307375,20250904111701300,None,4711,-1,0,-3,-5,-1,-1,-1,-1,1756999021299777030,6.6631598472595215
0,0.519450426,20250904111701300,None,4711,0,-2,-2,-4,-2,-2,2,1,1756999021299896240,6.6631598472595215
0,0.53441143,20250904111701315,None,4710,-2,0,2,-2,0,2,-2,5,1756999021314819097,8.328949928283691
0,0.534550667,20250904111701315,None,4710,-5,-1,0,-1,-3,0,-2,-4,1756999021314952850,8.328949928283691
0,0.541910648,20250904111701322,None,4709,-1,-3,-1,-1,-2,1,-1,1,1756999021322382926,12.136469841003418
0,0.542040825,20250904111701322,None,4709,-1,0,-1,-1,-3,0,-4,-4,1756999021322514533,12.136469841003418
0,0.549349308,20250904111701330,None,4708,3,1,-6,-2,-3,-1,0,-2,1756999021329822540,10.946619987487793
0,0.54945898,20250904111701330,None,4708,-2,-4,-1,-2,-3,-1,0,-2,1756999021329955101,10.946619987487793
0,0.564355135,20250904111701345,None,4705,0,-3,0,0,0,-2,2,0,1756999021344818592,8.566919326782227
0,0.564464807,20250904111701345,None,4705,0,-2,1,-1,0,0,0,-3,1756999021344957113,8.566919326782227
0,0.571913719,20250904111701352,None,4705,-1,0,1,0,-1,-3,0,-2,1756999021352355241,13.564290046691895
0,0.572092533,20250904111701352,None,4705,-1,-2,2,0,2,2,0,-1,1756999021352480649,13.564290046691895
0,0.579351187,20250904111701360,None,4704,-3,-4,1,-3,-3,0,-3,0,1756999021359783649,6.425189971923828
0,0.579537153,20250904111701360,None,4704,-3,0,-2,-2,-3,-1,1,-2,1756999021359888315,6.425189971923828
0,0.594412327,20250904111701375,None,4702,-1,2,0,-2,0,-2,2,0,1756999021374855756,14.516169548034668
0,0.594650984,20250904111701375,None,4702,2,0,-3,2,1,0,-1,0,1756999021374986648,5.949249744415283
0,0.601919889,20250904111701382,None,4701,1,0,-1,3,-4,-3,-1,-1,1756999021382359504,5.949249744415283
0,0.602097034,20250904111701382,None,4701,0,-4,0,1,-1,-1,-1,-1,1756999021382485866,5.949249744415283
0,0.60929656,20250904111701390,None,4701,-3,-1,0,-2,1,-1,-1,3,1756999021389822721,14.278200149536133
0,0.609398842,20250904111701390,None,4701,2,2,-3,-1,-4,1,0,1,1756999021389940738,14.278200149536133
0,0.624325991,20250904111701405,None,4699,-2,2,-4,-1,2,-2,0,0,1756999021404806852,11.898499488830566
0,0.624433756,20250904111701405,None,4699,-1,-2,0,1,1,-4,-1,-2,1756999021404933691,11.898499488830566
0,0.631803036,20250904111701412,None,4698,-1,-1,-3,-2,-2,-2,0,0,1756999021412344694,10.470680236816406
0,0.63189125,20250904111701412,None,4698,-1,3,0,-3,1,0,1,-6,1756999021412477493,10.470680236816406
0,0.63926363,20250904111701419,None,4697,1,-2,-1,-1,0,3,2,0,1756999021419791460,10.470680236816406
0,0.63935709,20250904111701420,None,4697,1,-1,-1,1,-3,-3,-1,1,1756999021419914960,10.470680236816406
0,0.65434742,20250904111701435,None,4695,-2,-2,-2,1,-1,-1,1,-1,1756999021434849023,13.088349342346191
0,0.654428482,20250904111701435,None,4695,-2,-2,-1,-1,-2,-1,0,-1,1756999021435009241,13.088349342346191
0,0.6618855,20250904111701442,None,4694,-1,-3,1,1,2,0,-1,-1,1756999021442394256,6.425189971923828
0,0.661975622,20250904111701442,None,4694,1,0,1,-5,-1,-3,-2,0,1756999021442559719,6.425189971923828
0,0.669303656,20250904111701450,None,4693,1,2,-3,0,-1,-2,-1,-1,1756999021449822902,14.278200149536133
0,0.669412613,20250904111701450,None,4693,-1,-2,-3,-4,0,-1,-1,-1,1756999021449966192,14.278200149536133
0,0.684313536,20250904111701465,None,4692,-3,-1,-3,3,-3,-1,-2,-2,1756999021464821338,5.949249744415283
0,0.684402943,20250904111701465,None,4692,1,-1,1,1,1,-2,3,0,1756999021464977502,5.949249744415283
0,0.692076445,20250904111701472,None,4691,0,0,-2,-2,-3,-1,-1,-1,1756999021472512006,14.516169548034668
0,0.692166328,20250904111701472,None,4691,-1,0,1,0,1,0,2,0,1756999021472702980,14.516169548034668
0,0.699375391,20250904111701480,None,4690,1,1,0,-1,0,-3,-3,-1,1756999021479855060,7.139100074768066
0,0.699466705,20250904111701480,None,4690,0,1,-2,-2,-2,1,0,0,1756999021480010747,7.139100074768066
0,0.714439869,20250904111701495,None,4688,-1,-1,-2,2,-1,-1,-1,-5,1756999021494889259,9.518799781799316
0,0.714562416,20250904111701495,None,4688,-2,-1,-2,2,-2,-2,-4,-2,1756999021495050191,9.518799781799316
0,0.721849918,20250904111701502,None,4687,1,-2,-2,-1,0,0,-1,1,1756999021502403736,9.518799781799316
0,0.721964598,20250904111701502,None,4687,1,-3,-1,2,-1,2,-1,-2,1756999021502546548,9.518799781799316
0,0.729466677,20250904111701510,None,4687,0,-3,2,-4,1,-2,-1,-2,1756999021509946346,9.756770133972168
0,0.72956872,20250904111701510,None,4687,2,0,0,-3,-1,-3,-4,0,1756999021510130643,9.756770133972168
0,0.744258404,20250904111701524,None,4684,1,-1,1,0,-1,1,1,-1,1756999021524686336,6.901129722595215
0,0.744359255,20250904111701525,None,4684,1,-4,-3,-4,0,-2,-1,0,1756999021524805068,6.901129722595215
0,0.751825809,20250904111701532,None,4683,-4,0,0,-2,-2,0,-1,0,1756999021532315969,14.516169548034668
0,0.751926899,20250904111701532,None,4683,0,1,-1,0,1,-2,1,1,1756999021532445907,14.516169548034668
0,0.759248495,20250904111701539,None,4682,-2,-3,-1,0,-1,-1,-2,-1,1756999021539760589,14.516169548034668
0,0.759348392,20250904111701540,None,4682,-1,3,-2,-1,-1,-1,-4,-3,1756999021539882898,14.516169548034668
0,0.774356365,20250904111701555,None,4681,-1,1,0,-3,-1,2,1,0,1756999021554844617,14.516169548034668
0,0.774460077,20250904111701555,None,4681,0,-2,1,-3,1,-1,-4,-1,1756999021555008172,14.516169548034668
0,0.781924248,20250904111701562,None,4680,0,-1,1,-3,0,0,-1,-2,1756999021562385559,7.139100074768066
0,0.782079697,20250904111701562,None,4680,1,2,0,-3,-1,-2,-3,-1,1756999021562524080,7.139100074768066
0,0.789281368,20250904111701570,None,4679,-2,1,-2,2,-1,-2,1,0,1756999021569809198,12.850379943847656
0,0.789376497,20250904111701570,None,4679,2,-3,-1,-5,-5,2,1,-1,1756999021569937705,12.850379943847656
0,0.80435586,20250904111701585,None,4678,-3,-2,-1,3,-1,2,-4,-2,1756999021584813356,8.566919326782227
0,0.804491281,20250904111701585,None,4678,0,1,0,1,1,0,0,-2,1756999021584950923,8.566919326782227
0,0.811839104,20250904111701592,None,4677,1,0,-1,-1,-4,2,1,-2,1756999021592318534,10.470680236816406
0,0.811954021,20250904111701592,None,4677,-1,-1,-1,-1,-2,-3,-1,1,1756999021592445611,10.470680236816406
0,0.819284439,20250904111701600,None,4675,2,1,0,2,1,-3,-1,0,1756999021599808931,12.374439239501953
0,0.819381952,20250904111701600,None,4675,1,-2,-4,0,-2,-3,-1,0,1756999021599935531,12.374439239501953
0,0.834316015,20250904111701615,None,4673,0,0,-1,-1,0,0,-2,-1,1756999021614835739,14.278200149536133
0,0.834433555,20250904111701615,None,4673,1,-3,-1,-1,-3,1,-1,0,1756999021614973068,14.278200149536133
0,0.841914654,20250904111701622,None,4673,-1,-3,-1,-1,0,-3,0,0,1756999021622394561,14.278200149536133
0,0.842042208,20250904111701622,None,4673,-2,-1,-1,0,-1,0,-2,0,1756999021622521638,14.278200149536133
0,0.849273205,20250904111701629,None,4672,-3,1,-2,1,-4,-3,-2,2,1756999021629791021,6.187219619750977
0,0.849357605,20250904111701630,None,4672,0,0,0,-3,0,1,-1,2,1756999021629943609,6.187219619750977
0,0.864355326,20250904111701645,None,4670,-1,1,-1,1,-3,0,0,0,1756999021644808292,6.425189971923828
0,0.864504576,20250904111701645,None,4670,-1,-2,0,-3,0,-1,-1,0,1756999021644966840,6.425189971923828
0,0.871835947,20250904111701652,None,4669,-3,-4,0,-1,-2,-1,0,0,1756999021652308940,13.088349342346191
0,0.872018576,20250904111701652,None,4669,0,2,0,0,-3,-1,-3,-2,1756999021652431011,13.088349342346191
0,0.879667044,20250904111701660,None,4668,-3,-3,1,-1,-3,-1,2,-2,1756999021659751892,13.088349342346191
0,0.879916906,20250904111701660,None,4668,-4,2,1,-1,-2,-5,-1,-3,1756999021659948587,13.088349342346191
0,0.894390106,20250904111701675,None,4667,0,0,-3,-3,3,2,1,4,1756999021674807071,10.708649635314941
0,0.894508123,20250904111701675,None,4667,0,-1,-2,-2,-1,-1,-1,-3,1756999021674987316,10.708649635314941
0,0.902047157,20250904111701682,None,4665,0,-1,0,1,-3,-1,-1,0,1756999021682400941,11.184589385986328
0,0.902240038,20250904111701682,None,4665,0,-3,2,0,-1,0,0,-1,1756999021682557344,11.184589385986328
0,0.909435272,20250904111701690,None,4665,1,1,3,0,-1,-1,-2,0,1756999021689840316,7.8530097007751465
0,0.909615755,20250904111701690,None,4665,-2,-3,-2,-3,-1,-1,-4,1,1756999021689977645,7.8530097007751465
0,0.924325228,20250904111701705,None,4663,-2,1,-1,-3,-3,0,-3,0,1756999021704777002,14.040229797363281
0,0.924432516,20250904111701705,None,4663,0,-3,0,-1,-1,-1,-1,-3,1756999021704907417,14.040229797363281
0,0.931752443,20250904111701712,None,4662,-4,-1,0,-3,-1,-1,3,-1,1756999021712205648,6.187219619750977
0,0.931843519,20250904111701712,None,4662,0,2,0,-1,2,0,0,-2,1756999021712328195,6.187219619750977
0,0.939311266,20250904111701720,None,4661,0,-1,-1,2,-1,-1,-3,1,1756999021719782590,14.516169548034668
0,0.939425945,20250904111701720,None,4661,-1,1,0,0,-1,0,-4,1,1756999021719922065,14.516169548034668
0,0.954368353,20250904111701735,None,4659,-1,-2,-3,1,0,0,-1,-3,1756999021734827995,6.187219619750977
0,0.954507112,20250904111701735,None,4659,-2,0,-2,0,-2,-3,1,-1,1756999021734993934,6.187219619750977
0,0.961722374,20250904111701742,None,4659,-2,-1,-3,-1,-2,-3,2,-1,1756999021742271900,14.040229797363281
0,0.961940288,20250904111701742,None,4658,-4,-3,-1,4,-2,0,-1,-1,1756999021742432355,14.040229797363281
0,0.96930623,20250904111701750,None,4658,1,-4,-2,-4,0,-4,1,1,1756999021749817132,8.566919326782227
0,0.96938777,20250904111701750,None,4658,-1,2,-2,1,-2,3,0,1,1756999021749977827,8.566919326782227
0,0.984303713,20250904111701765,None,4655,-2,0,-2,-1,-3,1,-4,-4,1756999021764785766,10.946619987487793
0,0.984408378,20250904111701765,None,4655,1,0,-3,-2,-1,1,-1,-4,1756999021764965295,10.946619987487793
0,0.991699219,20250904111701772,None,4655,-1,-3,-1,2,-2,1,-1,-1,1756999021772175550,9.04286003112793
0,0.991780043,20250904111701772,None,4655,0,0,0,0,-4,1,2,-1,1756999021772252082,9.04286003112793
0,0.999153137,20250904111701779,None,4653,-1,-2,-3,-1,0,0,0,-2,1756999021779673576,9.04286003112793
0,0.999215364,20250904111701779,None,4653,0,-3,-2,-4,3,1,-3,-1,1756999021779782295,9.04286003112793
0,1.014383793,20250904111701795,None,4652,-2,-3,3,2,1,-2,3,-1,1756999021794759273,6.187219619750977
0,1.014559746,20250904111701795,None,4652,-4,-5,1,-2,0,0,-1,-1,1756999021794905185,6.187219619750977
0,1.021804571,20250904111701802,None,4651,0,-1,-2,2,0,-3,-2,0,1756999021802310228,14.516169548034668
0,1.021911144,20250904111701802,None,4651,0,2,1,-1,-3,-3,-2,-1,1756999021802455902,14.516169548034668
0,1.029296636,20250904111701810,None,4650,0,4,0,-2,-2,1,1,-1,1756999021809789896,14.516169548034668
0,1.029411793,20250904111701810,None,4650,0,1,-1,-4,-3,0,-1,-1,1756999021809935092,14.516169548034668
0,1.044344187,20250904111701825,None,4649,0,0,-1,2,2,-1,0,2,1756999021824811935,14.040229797363281
0,1.044449329,20250904111701825,None,4649,3,0,-3,-2,2,-1,2,-1,1756999021824957847,14.040229797363281
0,1.051786661,20250904111701832,None,4648,-2,-5,-3,0,0,-3,-2,-4,1756999021832250356,7.8530097007751465
0,1.051907778,20250904111701832,None,4648,0,-1,-1,-2,-1,0,-1,-2,1756999021832374334,7.8530097007751465
0,1.0592134,20250904111701839,None,4647,0,-2,-2,3,-4,-2,-4,-1,1756999021839725971,11.42255973815918
0,1.059312582,20250904111701840,None,4647,-2,2,1,-1,-3,-2,0,0,1756999021839846849,11.42255973815918
0,1.07423377,20250904111701854,None,4645,-4,-1,0,-1,-1,2,1,-1,1756999021854753732,10.232709884643555
0,1.074312687,20250904111701855,None,4645,-3,0,-1,-3,-2,1,1,1,1756999021854893207,10.232709884643555
0,1.081730127,20250904111701862,None,4645,0,-2,0,2,-2,-4,-3,-3,1756999021862259626,8.804889678955078
0,1.081833124,20250904111701862,None,4645,1,-1,-4,-5,-1,1,-1,-1,1756999021862372875,8.804889678955078
0,1.089348316,20250904111701870,None,4643,0,0,-2,-4,1,2,1,2,1756999021869832277,13.088349342346191
0,1.089460373,20250904111701870,None,4643,-1,2,-2,1,-1,2,-2,-1,1756999021869996547,13.088349342346191
0,1.104465485,20250904111701885,None,4641,0,-2,1,1,-2,0,-1,-1,1756999021884839057,14.516169548034668
0,1.104659319,20250904111701885,None,4641,-2,-2,0,-3,-2,-2,-1,0,1756999021885028600,14.516169548034668
0,1.111810923,20250904111701892,None,4640,-1,-2,-3,-1,0,-3,1,0,1756999021892311811,5.71127986907959
0,1.111898899,20250904111701892,None,4640,-3,-1,-3,0,-2,-4,-6,-5,1756999021892474889,5.71127986907959
0,1.119372368,20250904111701900,None,4639,0,2,-2,0,1,1,0,-2,1756999021899835348,5.71127986907959
0,1.119466305,20250904111701900,None,4639,-3,-3,-2,1,0,-1,-2,0,1756999021900015830,5.71127986907959
0,1.134377003,20250904111701915,None,4638,-3,-1,-1,-1,1,-3,1,4,1756999021914769649,7.139100074768066
0,1.134540796,20250904111701915,None,4638,0,1,-3,-1,-4,0,-1,1,1756999021914901733,7.139100074768066
0,1.142295837,20250904111701923,None,4637,-3,-1,0,-2,0,-1,0,-2,1756999021922518730,11.898499488830566
0,1.142467022,20250904111701923,None,4637,1,5,-2,2,0,-1,-1,-4,1756999021922817707,11.898499488830566
0,1.149369478,20250904111701930,None,4636,2,-3,-1,-3,0,-4,-2,1,1756999021929744482,9.756770133972168
0,1.149530411,20250904111701930,None,4636,0,-3,4,1,0,0,-2,-1,1756999021929882287,9.756770133972168
0,1.164688825,20250904111701945,None,4635,1,0,1,0,-2,-2,3,-1,1756999021944945096,9.280829429626465
0,1.164903641,20250904111701945,None,4635,0,1,0,-3,-1,0,-4,-2,1756999021945129632,9.280829429626465
0,1.17228651,20250904111701953,None,4633,-1,-1,0,-1,-2,-1,-1,-2,1756999021952523708,12.612409591674805
0,1.172488212,20250904111701953,None,4633,-2,-3,-2,-3,-3,1,1,0,1756999021952650785,12.612409591674805
0,1.179354429,20250904111701960,None,4632,1,-1,-2,-2,-2,0,0,1,1756999021959693670,6.6631598472595215
0,1.17974329,20250904111701960,None,4632,-3,0,0,-1,0,-1,0,0,1756999021959832429,6.6631598472595215
0,1.194576263,20250904111701975,None,4630,-1,-2,-3,-2,-1,-1,0,0,1756999021974732875,5.949249744415283
0,1.19478941,20250904111701975,None,4630,1,0,-1,3,-4,0,0,-2,1756999021974858283,5.949249744415283
0,1.202041864,20250904111701982,None,4630,1,-3,-1,0,-4,2,-1,1,1756999021982262134,5.949249744415283
0,1.202239513,20250904111701982,None,4630,-1,1,0,3,-3,0,-1,1,1756999021982368230,5.949249744415283
0,1.217325449,20250904111701998,None,4628,0,-1,-3,-2,1,0,-1,-1,1756999021997586011,6.6631598472595215
0,1.217648744,20250904111701998,None,4628,-2,-2,1,-1,-1,1,-2,-3,1756999021997779369,6.6631598472595215
0,1.224984407,20250904111702005,None,4627,0,-1,1,0,-2,-1,2,-1,1756999022004998683,12.374439239501953
0,1.225158214,20250904111702005,None,4627,0,1,-1,0,-3,0,3,1,1756999022005182027,12.374439239501953
0,1.232165813,20250904111702012,None,4626,-2,2,-2,-1,0,-1,0,-1,1756999022012434244,9.280829429626465
0,1.232260227,20250904111702012,None,4626,-1,-1,-1,2,-2,1,-3,0,1756999022012606143,9.280829429626465
0,1.247035265,20250904111702027,None,4625,-5,-3,0,1,-2,-3,-3,-2,1756999022027335405,9.994739532470703
0,1.247145176,20250904111702027,None,4625,-1,0,-4,1,-1,-3,1,-3,1756999022027497053,9.994739532470703
0,1.25451684,20250904111702035,None,4623,1,0,-5,-3,1,1,0,0,1756999022034733533,12.374439239501953
0,1.254735231,20250904111702035,None,4623,-2,-3,-3,-1,2,-1,0,-1,1756999022034855604,12.374439239501953
0,1.262227297,20250904111702042,None,4622,-1,0,0,2,-1,0,-4,-2,1756999022042423486,7.139100074768066
0,1.262455225,20250904111702043,None,4622,-2,0,-3,1,-1,-1,3,0,1756999022042581081,7.139100074768066
0,1.276984453,20250904111702057,None,4620,2,1,-1,0,-3,-2,-5,-1,1756999022057190418,14.516169548034668
0,1.277164459,20250904111702057,None,4620,-1,2,1,-2,1,-1,0,-1,1756999022057354211,14.516169548034668
0,1.28437686,20250904111702065,None,4620,-1,-3,-1,2,-2,-4,-1,-2,1756999022064661264,5.949249744415283
0,1.284661054,20250904111702065,None,4620,-3,-3,-3,-5,0,2,-2,-3,1756999022064767599,5.949249744415283
0,1.291765451,20250904111702072,None,4619,-2,-2,-3,0,1,-2,1,0,1756999022072162866,14.516169548034668
0,1.291929006,20250904111702072,None,4619,0,-1,1,-2,-2,-2,0,-2,1756999022072256326,14.516169548034668
0,1.306782007,20250904111702087,None,4617,2,-2,1,0,-1,-3,-3,-1,1756999022087248325,13.088349342346191
0,1.306913853,20250904111702087,None,4617,0,-1,-2,0,-1,-1,-1,-4,1756999022087377548,13.088349342346191
0,1.3143434520000001,20250904111702095,None,4616,1,2,-1,-1,-1,-1,-3,-1,1756999022094808578,13.088349342346191
0,1.3146061900000001,20250904111702095,None,4616,0,-3,-3,-1,-3,-4,-2,-1,1756999022094982624,8.804889678955078
0,1.3217482569999999,20250904111702102,None,4616,-1,1,-4,-1,0,2,1,0,1756999022102251768,8.804889678955078
0,1.32184577,20250904111702102,None,4616,-1,2,-1,0,-3,0,-1,0,1756999022102396965,8.804889678955078
0,1.336723804,20250904111702117,None,4613,-1,0,0,0,1,-1,-2,0,1756999022117198944,11.898499488830566
0,1.336832285,20250904111702117,None,4613,1,0,-1,-3,-2,0,-3,-2,1756999022117355108,11.898499488830566
0,1.3441693780000001,20250904111702124,None,4612,0,-1,-3,4,0,-1,-3,-2,1756999022124676465,7.615039825439453
0,1.344283581,20250904111702125,None,4612,0,-1,-2,1,-1,-2,2,1,1756999022124824523,7.615039825439453
0,1.351726293,20250904111702132,None,4611,0,-2,2,2,0,-1,1,0,1756999022132174253,7.615039825439453
0,1.351834059,20250904111702132,None,4611,3,-3,1,1,-1,-1,0,2,1756999022132247447,7.615039825439453
0,1.366828203,20250904111702147,None,4610,-2,5,-3,1,-3,-2,-2,0,1756999022147281646,6.425189971923828
0,1.366972923,20250904111702147,None,4610,0,0,1,-1,2,1,0,1,1756999022147407293,6.425189971923828
0,1.37419796,20250904111702154,None,4609,1,-3,0,-1,-2,-5,-1,-1,1756999022154706478,14.75413990020752
0,1.374300718,20250904111702155,None,4609,-2,-4,0,0,-1,-1,-3,-1,1756999022154812574,14.75413990020752
0,1.381665468,20250904111702162,None,4608,-1,-1,-1,-1,-2,0,-1,-3,1756999022162175893,6.187219619750977
0,1.381763697,20250904111702162,None,4608,2,0,-2,-1,-2,0,-2,3,1756999022162249565,6.187219619750977
0,1.39676094,20250904111702177,None,4606,0,1,1,-1,-2,1,2,-2,1756999022177207469,13.326319694519043
0,1.396870136,20250904111702177,None,4606,-4,1,-4,1,-3,0,-2,0,1756999022177358150,13.326319694519043
0,1.404150963,20250904111702184,None,4605,0,0,0,1,1,-2,-2,0,1756999022184648036,8.804889678955078
0,1.404249906,20250904111702184,None,4605,0,0,-3,1,-3,0,0,-1,1756999022184757709,8.804889678955078
0,1.4117243290000001,20250904111702192,None,4605,-3,-1,0,0,0,-1,3,1,1756999022192214488,11.898499488830566
0,1.4118494990000001,20250904111702192,None,4605,-1,-2,0,0,-3,0,3,-2,1756999022192347049,11.898499488830566
0,1.426721811,20250904111702207,None,4603,1,-2,2,0,-1,-2,-1,0,1756999022207183599,8.566919326782227
0,1.426835537,20250904111702207,None,4603,-1,0,-3,0,-1,3,-1,-2,1756999022207247972,8.566919326782227
0,1.434187651,20250904111702214,None,4601,1,1,0,0,-1,-1,-2,2,1756999022214689970,13.088349342346191
0,1.434293032,20250904111702215,None,4601,-3,-1,-2,-1,-2,-2,-1,0,1756999022214812994,13.088349342346191
0,1.441706419,20250904111702222,None,4600,-2,-3,1,-1,0,0,-3,-3,1756999022222194194,13.088349342346191
0,1.441805363,20250904111702222,None,4600,-1,3,0,3,-5,-3,-2,-1,1756999022222324132,13.088349342346191
0,1.456732511,20250904111702237,None,4599,2,0,-3,-1,-2,-1,-1,-3,1756999022237190961,14.516169548034668
0,1.456856489,20250904111702237,None,4599,-1,2,1,1,2,2,1,3,1756999022237341642,14.516169548034668
0,1.464158058,20250904111702244,None,4598,-3,-3,-2,0,0,0,-2,-1,1756999022244651079,6.425189971923828
0,1.46423912,20250904111702244,None,4598,-1,-1,-3,0,-1,-1,-2,-1,1756999022244800806,6.425189971923828
0,1.471607685,20250904111702252,None,4597,0,0,-3,-1,-1,-1,-1,1,1756999022252149343,14.040229797363281
0,1.471694231,20250904111702252,None,4597,0,-1,2,0,-2,0,2,1,1756999022252257108,14.040229797363281
0,1.486835241,20250904111702267,None,4596,-6,-1,-2,-1,-1,1,1,0,1756999022267291069,8.09097957611084
0,1.486952066,20250904111702267,None,4596,0,-2,1,-1,-3,-2,0,-1,1756999022267444372,8.09097957611084
0,1.494346857,20250904111702275,None,4595,0,2,-1,-1,-2,-1,-2,1,1756999022274741649,11.660530090332031
0,1.494565725,20250904111702275,None,4595,-4,-1,-3,1,-2,0,-2,-1,1756999022274905204,11.660530090332031
0,1.501750469,20250904111702282,None,4594,2,0,-3,0,-1,0,1,-1,1756999022282258272,10.232709884643555
0,1.501862049,20250904111702282,None,4594,-2,1,-1,2,2,2,-1,-1,1756999022282390356,10.232709884643555
0,1.5169410700000001,20250904111702297,None,4591,1,-1,1,-2,1,-1,1,3,1756999022297353267,13.564290046691895
0,1.517096758,20250904111702297,None,4591,1,-2,-1,0,1,0,-1,-1,1756999022297529697,13.564290046691895
0,1.524233103,20250904111702304,None,4591,2,-1,0,-1,-2,-2,3,2,1756999022304685354,13.564290046691895
0,1.524382353,20250904111702305,None,4591,-1,1,1,-1,-3,-1,-1,-7,1756999022304831743,13.564290046691895
0,1.531745195,20250904111702312,None,4590,-1,-2,-1,-3,0,-4,0,0,1756999022312200307,6.6631598472595215
0,1.531892061,20250904111702312,None,4590,-2,0,2,-2,0,1,-2,-3,1756999022312440872,6.6631598472595215
0,1.546968937,20250904111702327,None,4588,-1,-4,-2,0,-4,-1,0,1,1756999022327322006,6.187219619750977
0,1.54717493,20250904111702327,None,4588,-1,0,0,0,-1,-1,-1,-1,1756999022327490806,6.187219619750977
0,1.554677248,20250904111702335,None,4587,-1,-4,0,0,0,-1,-5,-1,1756999022334717035,14.278200149536133
0,1.5548479560000001,20250904111702335,None,4587,3,-1,-1,1,-1,0,1,2,1756999022334865808,14.278200149536133
0,1.5618283750000002,20250904111702342,None,4586,-1,-4,-2,5,1,-3,1,0,1756999022342280626,14.278200149536133
0,1.561945915,20250904111702342,None,4586,1,3,2,-6,-1,2,-2,-4,1756999022342440843,14.278200149536133
0,1.576741218,20250904111702357,None,4585,-1,-2,-2,-3,1,-2,-2,-1,1756999022357196092,11.898499488830566
0,1.576880693,20250904111702357,None,4585,-2,-3,-3,-1,1,-2,-2,-2,1756999022357362270,11.898499488830566
0,1.584240913,20250904111702364,None,4584,-2,-1,1,-1,2,0,-1,-1,1756999022364709377,10.232709884643555
0,1.584357738,20250904111702365,None,4584,1,2,-1,2,1,3,2,1,1756999022364854574,10.232709884643555
0,1.591709375,20250904111702372,None,4583,-2,-1,-1,-2,-1,-1,-2,0,1756999022372196435,9.280829429626465
0,1.59180522,20250904111702372,None,4583,-2,-3,-1,-1,2,1,2,1,1756999022372338771,9.280829429626465
0,1.606802702,20250904111702387,None,4581,0,-1,-2,-4,-2,-3,0,-1,1756999022387300252,12.850379943847656
0,1.606918096,20250904111702387,None,4581,1,1,-3,-1,-1,1,0,-3,1756999022387445211,12.850379943847656
0,1.6141963000000001,20250904111702394,None,4580,1,-3,-1,0,1,-1,3,-1,1756999022394696712,6.425189971923828
0,1.614309788,20250904111702395,None,4580,-1,-6,-2,-1,1,0,2,-3,1756999022394822120,6.425189971923828
0,1.6217348569999999,20250904111702402,None,4579,-4,-3,0,0,-2,0,-1,-3,1756999022402217149,14.75413990020752
0,1.621841431,20250904111702402,None,4579,2,0,2,0,1,-2,1,2,1756999022402380228,14.75413990020752
0,1.636761188,20250904111702417,None,4577,-1,-1,-1,2,-1,0,-2,2,1756999022417219877,14.278200149536133
0,1.6369128229999999,20250904111702417,None,4577,-3,2,-1,-1,-4,0,-6,-2,1756999022417401313,14.278200149536133
0,1.644190311,20250904111702424,None,4577,0,1,-1,1,3,-1,1,1,1756999022424664020,14.278200149536133
0,1.6443207260000001,20250904111702425,None,4577,-1,-3,-2,-4,0,-3,-1,-1,1756999022424795627,14.278200149536133
0,1.6518907550000002,20250904111702432,None,4576,-2,-2,-2,-2,-4,0,1,-3,1756999022432355165,7.139100074768066
0,1.652014494,20250904111702432,None,4576,-3,0,-2,-1,2,-1,-2,0,1756999022432548284,7.139100074768066
0,1.666827917,20250904111702447,None,4574,-1,0,-1,-2,1,0,-2,-6,1756999022447207689,9.518799781799316
0,1.666940927,20250904111702447,None,4574,-1,-1,0,-3,-1,-1,-3,0,1756999022447385072,9.518799781799316
0,1.67423439,20250904111702454,None,4573,-2,-1,1,-1,-3,-1,-1,-3,1756999022454699754,9.518799781799316
0,1.674371719,20250904111702455,None,4573,-1,-2,-1,0,2,-4,-1,1,1756999022454882860,9.518799781799316
0,1.6817293169999998,20250904111702462,None,4573,-5,-1,-2,-4,-1,0,-3,1,1756999022462257623,9.518799781799316
0,1.681813002,20250904111702462,None,4573,2,-1,-2,2,1,-4,-4,-1,1756999022462411880,9.518799781799316
0,1.696747303,20250904111702477,None,4570,0,-3,-3,-1,-5,-3,0,-2,1756999022477169036,6.6631598472595215
0,1.696917772,20250904111702477,None,4570,2,1,1,1,0,-1,2,-3,1756999022477350473,6.6631598472595215
0,1.704087734,20250904111702484,None,4569,0,-4,-2,-2,-1,-2,-4,-3,1756999022484561920,14.278200149536133
0,1.704225778,20250904111702484,None,4569,0,-2,-3,-1,-1,0,0,3,1756999022484667062,14.278200149536133
0,1.711728573,20250904111702492,None,4568,-1,-2,0,-2,-1,-4,-1,-3,1756999022492164134,5.71127986907959
0,1.7118487359999999,20250904111702492,None,4568,-4,-2,3,1,-2,0,1,-1,1756999022492290973,5.71127986907959
0,1.7267639639999999,20250904111702507,None,4567,1,-1,1,2,0,-1,-2,-2,1756999022507193565,14.516169548034668
0,1.7269005769999999,20250904111702507,None,4567,-1,1,2,-2,-1,-1,1,0,1756999022507320642,14.516169548034668
0,1.734183788,20250904111702514,None,4566,1,2,-1,2,1,-2,-3,0,1756999022514662504,6.425189971923828
0,1.7343137259999999,20250904111702515,None,4566,1,-1,-1,-2,-2,0,-1,0,1756999022514784812,6.425189971923828
0,1.741738558,20250904111702522,None,4565,0,1,1,-5,2,1,1,1,1756999022522176742,13.088349342346191
0,1.741873979,20250904111702522,None,4565,-3,-1,-2,-3,0,-3,-2,-3,1756999022522349834,13.088349342346191
0,1.757025957,20250904111702537,None,4563,1,1,3,3,1,-2,1,-1,1756999022537262439,10.708649635314941
0,1.757237196,20250904111702537,None,4563,-5,0,-1,1,-3,1,0,0,1756999022537486314,10.708649635314941
0,1.764445543,20250904111702545,None,4561,0,-1,2,-2,-3,-3,-2,-3,1756999022544606924,10.708649635314941
0,1.764626026,20250904111702545,None,4561,-1,-1,-1,-4,0,1,-3,0,1756999022544724941,10.708649635314941
0,1.771902561,20250904111702552,None,4561,-2,-3,0,-1,2,1,0,-1,1756999022552146673,11.184589385986328
0,1.772033214,20250904111702552,None,4561,-2,1,1,1,2,0,0,1,1756999022552258968,11.184589385986328
0,1.7869443889999999,20250904111702567,None,4559,1,-2,-1,-3,2,3,-1,-3,1756999022567203283,14.040229797363281
0,1.787074327,20250904111702567,None,4559,2,0,0,1,0,0,2,2,1756999022567350387,14.040229797363281
0,1.794249534,20250904111702574,None,4558,-3,-4,1,-2,-1,-1,-1,-1,1756999022574679136,6.187219619750977
0,1.794387817,20250904111702575,None,4558,-3,-1,0,1,0,-3,0,0,1756999022574811220,6.187219619750977
0,1.8019485469999998,20250904111702582,None,4557,-3,1,-3,2,1,-2,0,-5,1756999022582179069,6.187219619750977
0,1.8021335600000001,20250904111702582,None,4557,-2,0,1,0,-2,1,-3,-1,1756999022582279443,6.187219619750977
0,1.8169510359999999,20250904111702597,None,4556,-2,-4,-2,0,-4,-4,1,2,1756999022597144126,6.425189971923828
0,1.817137957,20250904111702597,None,4556,-1,-3,2,-4,-2,-1,-2,-3,1756999022597274780,6.425189971923828
0,1.824324369,20250904111702605,None,4555,-1,-1,-3,-4,-1,0,0,-1,1756999022604580640,13.088349342346191
0,1.824495792,20250904111702605,None,4555,-2,-1,-2,-1,-3,-2,-3,0,1756999022604697704,13.088349342346191
0,1.8318796160000002,20250904111702612,None,4554,-1,-3,2,-2,0,-4,-3,0,1756999022612117767,9.04286003112793
0,1.832066059,20250904111702612,None,4554,-1,0,0,-1,-2,-1,-1,2,1756999022612221956,9.04286003112793
0,1.84702158,20250904111702627,None,4551,0,0,2,2,-3,-4,3,1,1756999022627257585,10.708649635314941
0,1.847208738,20250904111702627,None,4551,1,-1,-1,0,-1,2,0,-4,1756999022627362728,10.708649635314941
0,1.8545923229999999,20250904111702635,None,4551,0,-1,-2,0,-2,-3,-3,-1,1756999022634794712,11.660530090332031
0,1.854799986,20250904111702635,None,4551,-1,-1,-3,-2,-3,1,-2,0,1756999022634921789,11.660530090332031
0,1.869253635,20250904111702649,None,4549,-3,0,0,-1,-1,-1,-1,-1,1756999022649584054,13.564290046691895
0,1.869405746,20250904111702650,None,4549,-2,-2,0,-1,-1,2,-1,-3,1756999022649691104,13.564290046691895
0,1.876783132,20250904111702657,None,4548,-1,-3,-1,0,1,0,0,3,1756999022657150030,6.187219619750977
0,1.876880646,20250904111702657,None,4548,-1,1,1,-1,1,0,-5,2,1756999022657255172,6.187219619750977
0,1.884328604,20250904111702665,None,4548,-1,-2,-2,0,0,-1,-4,-2,1756999022664604663,6.187219619750977
0,1.8845686910000001,20250904111702665,None,4548,0,-2,1,-1,0,0,0,-3,1756999022664712905,6.187219619750977
0,1.891782522,20250904111702672,None,4547,-1,0,-1,3,0,3,-1,0,1756999022672111272,14.516169548034668
0,1.891956806,20250904111702672,None,4547,0,1,1,-3,-1,0,0,0,1756999022672264337,14.516169548034668
0,1.907012462,20250904111702687,None,4545,1,-3,-2,1,-1,-1,-1,-1,1756999022687164068,13.80225944519043
0,1.907303572,20250904111702688,None,4545,-1,-1,2,1,-2,-4,-1,1,1756999022687253475,13.80225944519043
0,1.91437006,20250904111702695,None,4544,-1,-2,-1,-1,-4,0,0,-1,1756999022694617271,8.328949928283691
0,1.914566755,20250904111702695,None,4544,-4,0,1,4,0,0,1,-3,1756999022694729804,8.328949928283691
0,1.921801329,20250904111702702,None,4543,-2,-2,0,-4,1,-3,-1,0,1756999022702130794,8.328949928283691
0,1.922007799,20250904111702702,None,4543,-1,0,-3,-3,-4,-1,-1,-4,1756999022702277660,8.328949928283691
0,1.936968088,20250904111702717,None,4542,0,-2,-2,-4,-3,-1,0,1,1756999022717157363,10.946619987487793
0,1.9371740819999999,20250904111702717,None,4542,-1,2,1,0,-1,1,2,-2,1756999022717275619,10.946619987487793
0,1.9443678850000001,20250904111702725,None,4541,-1,-2,-1,2,0,-1,-1,1,1756999022724624633,8.09097957611084
0,1.9445984360000002,20250904111702725,None,4541,-2,-1,0,-4,-1,-1,2,1,1756999022724743127,8.09097957611084
0,1.9519426819999999,20250904111702732,None,4539,0,0,1,-1,-2,-2,0,-2,1756999022732120275,13.80225944519043
0,1.952129125,20250904111702732,None,4539,-2,0,-1,0,2,0,-1,0,1756999022732266187,13.80225944519043
0,1.96701622,20250904111702747,None,4538,1,-2,-4,-3,-1,-1,-1,-1,1756999022747173309,5.949249744415283
0,1.9672017099999999,20250904111702747,None,4538,-1,0,-3,-2,-2,0,2,-1,1756999022747262716,5.949249744415283
0,1.9743616579999999,20250904111702755,None,4537,2,1,0,-3,-1,-2,-2,2,1756999022754604339,14.75413990020752
0,1.974581241,20250904111702755,None,4537,0,2,-4,-1,0,-2,-3,-3,1756999022754708766,14.75413990020752
0,1.9819388390000001,20250904111702762,None,4536,0,-4,0,0,3,1,2,0,1756999022762139081,5.949249744415283
0,1.982125759,20250904111702762,None,4536,-2,-2,0,0,-2,-1,0,-2,1756999022762252807,5.949249744415283
0,1.9965920449999999,20250904111702777,None,4534,-3,-4,0,-4,0,-2,0,0,1756999022777076959,8.09097957611084
0,1.996715784,20250904111702777,None,4534,-2,1,1,1,-1,-1,1,-3,1756999022777195930,8.09097957611084
0,2.003918171,20250904111702784,None,4534,-2,0,-2,-1,-4,-1,1,1,1756999022784469842,8.09097957611084
0,2.004025698,20250904111702784,None,4534,0,0,2,2,0,-2,-3,0,1756999022784562110,8.09097957611084
0,2.011448622,20250904111702792,None,4533,-2,-3,-1,0,-2,-3,-4,-1,1756999022791991710,11.660530090332031
0,2.011531353,20250904111702792,None,4533,-2,-4,-3,0,-4,0,-1,-1,1756999022792083024,11.660530090332031
0,2.02669549,20250904111702807,None,4531,-1,-2,3,1,2,1,-1,0,1756999022807128667,8.804889678955078
0,2.026813745,20250904111702807,None,4531,0,0,2,-2,-1,-1,2,1,1756999022807264089,8.804889678955078
0,2.034171343,20250904111702814,None,4529,-1,-3,1,-2,1,1,0,0,1756999022814634084,12.612409591674805
0,2.034352541,20250904111702815,None,4529,-2,2,0,-1,-1,-2,-3,-1,1756999022814753770,12.612409591674805
0,2.041701317,20250904111702822,None,4529,2,-1,1,1,-1,-2,-1,0,1756999022822133302,12.612409591674805
0,2.041849851,20250904111702822,None,4529,-2,-4,-2,0,-3,-1,-4,-2,1756999022822255134,12.612409591674805
0,2.05678153,20250904111702837,None,4527,-2,-5,-2,-2,0,-2,0,-1,1756999022837114572,14.516169548034668
0,2.056992531,20250904111702837,None,4527,-1,-3,-1,0,1,-2,-3,-4,1756999022837348937,14.516169548034668
0,2.064215422,20250904111702844,None,4526,0,3,-4,-3,-2,-3,-1,-1,1756999022844643831,5.949249744415283
0,2.064440966,20250904111702845,None,4526,1,0,-2,0,-1,1,0,-2,1756999022844800472,5.949249744415283
0,2.07177186,20250904111702852,None,4525,-3,-2,0,-1,-1,0,-1,0,1756999022852145195,14.278200149536133
0,2.071911335,20250904111702852,None,4525,-1,-3,-3,-2,-1,1,-2,-1,1756999022852305412,14.278200149536133
0,2.086779594,20250904111702867,None,4524,-1,-2,-1,-1,-1,0,1,1,1756999022867166757,7.37706995010376
0,2.086924791,20250904111702867,None,4524,-2,-1,-4,1,5,0,-1,0,1756999022867266416,7.37706995010376
0,2.094170332,20250904111702874,None,4523,-1,-1,-1,0,-4,-3,-4,1,1756999022874638795,12.374439239501953
0,2.094262361,20250904111702874,None,4523,-1,1,-1,0,-1,-3,-1,-1,1756999022874770402,12.374439239501953
0,2.101688862,20250904111702882,None,4522,-1,-5,-1,1,2,-1,0,-1,1756999022882143497,9.994739532470703
0,2.101787805,20250904111702882,None,4522,-2,1,-2,-1,-1,-3,1,0,1756999022882287025,9.994739532470703
0,2.116734266,20250904111702897,None,4519,1,1,-1,0,0,-3,1,-1,1756999022897164583,9.280829429626465
0,2.116849422,20250904111702897,None,4519,2,0,1,-1,3,0,-1,-2,1756999022897361993,9.280829429626465
0,2.124106169,20250904111702904,None,4519,-3,-3,-2,-4,-2,-2,-2,2,1756999022904551506,13.088349342346191
0,2.124200821,20250904111702904,None,4519,0,0,3,-1,3,0,1,1,1756999022904683351,13.088349342346191
0,2.131605625,20250904111702912,None,4518,-3,3,-3,1,0,3,1,-2,1756999022912095546,6.6631598472595215
0,2.13170886,20250904111702912,None,4518,1,-3,0,-1,0,0,1,-1,1756999022912258148,6.6631598472595215
0,2.14686656,20250904111702927,None,4516,0,-2,-2,0,-2,0,0,-2,1756999022927198171,5.71127986907959
0,2.147053718,20250904111702927,None,4516,-1,-1,-3,1,-1,-5,0,-1,1756999022927378416,5.71127986907959
0,2.15438509,20250904111702935,None,4515,1,-3,-4,2,1,-1,-3,-2,1756999022934855222,14.516169548034668
0,2.154500008,20250904111702935,None,4515,-1,-2,-2,0,-2,1,-2,1,1756999022934993743,14.516169548034668
0,2.169260025,20250904111702949,None,4514,-1,-1,-3,-1,0,2,1,2,1756999022949637174,6.6631598472595215
0,2.169432402,20250904111702950,None,4513,-1,-3,-1,-1,-2,-1,-1,0,1756999022949736356,6.6631598472595215
0,2.176751137,20250904111702957,None,4513,1,-1,0,-3,-1,-1,-2,-2,1756999022957218647,12.612409591674805
0,2.176837683,20250904111702957,None,4513,0,0,0,0,-1,0,-1,-3,1756999022957388877,12.612409591674805
0,2.184249639,20250904111702964,None,4512,-1,0,-3,-1,2,-1,1,3,1756999022964653730,9.280829429626465
0,2.184407949,20250904111702965,None,4512,0,-2,-2,-1,-2,-3,-1,-2,1756999022964784622,9.280829429626465
0,2.199270248,20250904111702979,None,4509,-3,-1,-1,0,-5,-1,0,-1,1756999022979724407,9.994739532470703
0,2.19939065,20250904111702980,None,4509,-1,-3,-2,-2,1,-2,-1,-1,1756999022979873895,9.994739532470703
0,2.206747532,20250904111702987,None,4509,2,1,0,-2,-2,1,-2,1,1756999022987276554,12.374439239501953
0,2.206843376,20250904111702987,None,4509,0,1,2,2,-1,2,-3,-3,1756999022987407922,12.374439239501953
0,2.214180469,20250904111702994,None,4508,-1,-1,-1,-1,3,0,-1,-4,1756999022994668483,7.139100074768066
0,2.214278698,20250904111702994,None,4508,-3,0,-3,1,0,3,-1,1,1756999022994830846,7.139100074768066
0,2.229618788,20250904111703010,None,4506,-1,-3,1,0,-1,-3,-2,-2,1756999023009807586,5.949249744415283
0,2.2297647,20250904111703010,None,4506,-3,2,-1,-1,-2,-1,0,0,1756999023009973287,5.949249744415283
0,2.236881971,20250904111703017,None,4505,0,-1,-2,3,0,2,-4,-1,1756999023017188787,14.516169548034668
0,2.236963749,20250904111703017,None,4505,0,-1,1,-2,-2,1,-2,-3,1756999023017319202,14.516169548034668
0,2.244123459,20250904111703024,None,4504,-4,-2,-2,-1,-1,-1,0,0,1756999023024527549,14.516169548034668
0,2.244243145,20250904111703024,None,4504,-2,1,-3,-3,1,-1,2,0,1756999023024656534,14.516169548034668
0,2.25938344,20250904111703040,None,4503,2,-1,-3,-2,0,0,-1,2,1756999023039666891,12.850379943847656
0,2.259609699,20250904111703040,None,4503,0,-5,2,0,-2,0,-1,0,1756999023039855957,12.850379943847656
0,2.266867638,20250904111703047,None,4502,1,1,0,1,-2,-3,-1,-2,1756999023047153472,9.04286003112793
0,2.2670328619999998,20250904111703047,None,4502,0,-1,-3,1,-3,-3,-2,0,1756999023047271728,9.04286003112793
0,2.274182081,20250904111703054,None,4501,0,1,0,-1,-1,0,-2,-3,1756999023054642438,10.470680236816406
0,2.274343252,20250904111703055,None,4501,-1,1,0,-3,-1,0,-1,-3,1756999023054809093,10.470680236816406
0,2.289149523,20250904111703069,None,4499,-1,-2,-4,-2,0,-1,-3,-2,1756999023069612503,11.898499488830566
0,2.28925991,20250904111703069,None,4499,-2,0,2,2,-2,-1,0,0,1756999023069754123,11.898499488830566
0,2.296601772,20250904111703077,None,4498,2,-1,0,3,-1,0,-2,1,1756999023077079534,7.37706995010376
0,2.296703339,20250904111703077,None,4498,-1,1,-2,1,-3,-2,-1,-2,1756999023077201366,7.37706995010376
0,2.304136038,20250904111703084,None,4497,0,-1,0,1,-2,0,2,-2,1756999023084602355,14.516169548034668
0,2.304248094,20250904111703084,None,4497,2,-2,-2,0,-2,-1,0,-1,1756999023084747076,14.516169548034668
0,2.319283247,20250904111703100,None,4495,1,0,2,-4,-1,-1,-1,0,1756999023099621295,14.516169548034668
0,2.319515705,20250904111703100,None,4495,-1,1,1,0,0,-4,-4,-2,1756999023099758863,14.516169548034668
0,2.326709032,20250904111703107,None,4495,-3,-2,-3,-2,0,1,0,-1,1756999023107125043,14.516169548034668
0,2.326847553,20250904111703107,None,4495,1,-1,0,0,-2,0,0,-3,1756999023107285499,14.516169548034668
0,2.334167242,20250904111703114,None,4494,-1,1,-1,-5,-1,-3,-2,0,1756999023114604711,6.187219619750977
0,2.334332943,20250904111703115,None,4494,0,-5,1,-1,-3,-1,1,0,1756999023114738702,6.187219619750977
0,2.349243402,20250904111703129,None,4492,-2,0,-2,0,2,-1,0,-1,1756999023129633426,8.566919326782227
0,2.349384546,20250904111703130,None,4492,0,-1,-3,-1,1,-2,-2,-1,1756999023129828214,8.566919326782227
0,2.3566122050000002,20250904111703137,None,4491,0,0,-2,0,0,-4,0,-1,1756999023137069225,10.708649635314941
0,2.356725454,20250904111703137,None,4491,1,-3,-1,-4,-2,2,-1,-4,1756999023137196302,10.708649635314941
0,2.36404705,20250904111703144,None,4489,-5,1,-1,-3,-1,-2,0,-2,1756999023144559621,10.708649635314941
0,2.364159584,20250904111703144,None,4489,-2,-3,0,2,-2,-1,-1,-3,1756999023144686698,10.708649635314941
0,2.379153728,20250904111703159,None,4489,-1,-4,-1,0,0,-3,0,-1,1756999023159557819,7.615039825439453
0,2.379324436,20250904111703160,None,4489,-1,-4,0,2,-3,1,0,0,1756999023159673929,7.615039825439453
0,2.386646032,20250904111703167,None,4487,0,1,-1,1,-1,0,0,-1,1756999023167119026,13.326319694519043
0,2.386756658,20250904111703167,None,4487,-1,-2,1,0,2,-1,0,0,1756999023167291402,13.326319694519043
0,2.394206524,20250904111703174,None,4486,3,0,-2,1,-1,0,2,0,1756999023174605607,6.187219619750977
0,2.394388676,20250904111703175,None,4486,-2,1,-1,1,-3,0,-2,-3,1756999023174740791,6.187219619750977
0,2.409070492,20250904111703189,None,4485,-3,0,0,-2,-3,-1,3,1,1756999023189576864,14.75413990020752
0,2.409184456,20250904111703189,None,4485,-1,1,-1,0,-1,1,-3,-2,1756999023189694404,14.75413990020752
0,2.416559219,20250904111703197,None,4484,-2,-3,0,0,-2,-3,-1,-2,1756999023197047233,6.187219619750977
0,2.41666007,20250904111703197,None,4484,-1,2,-3,0,0,-3,-2,-1,1756999023197156190,6.187219619750977
0,2.424034357,20250904111703204,None,4483,-1,-5,0,-4,-1,-3,-2,1,1756999023204522132,13.80225944519043
0,2.424174785,20250904111703204,None,4483,0,-1,0,-1,-3,2,-2,-1,1756999023204658508,13.80225944519043
0,2.439099789,20250904111703219,None,4481,0,1,-2,0,0,2,-3,-1,1756999023219593524,11.42255973815918
0,2.439208507,20250904111703219,None,4481,0,-2,-2,0,-1,-3,-2,0,1756999023219744205,11.42255973815918
0,2.446504354,20250904111703227,None,4481,2,2,0,-2,-4,0,4,0,1756999023227044343,11.42255973815918
0,2.44661355,20250904111703227,None,4481,-3,-2,-1,0,-1,-1,-1,-1,1756999023227161645,11.42255973815918
0,2.4540038109999998,20250904111703234,None,4480,1,-3,-2,-1,-3,-1,2,1,1756999023234533071,10.946619987487793
0,2.45408988,20250904111703234,None,4480,0,-1,0,-3,-2,-1,1,-1,1756999023234630346,10.946619987487793
0,2.469106436,20250904111703249,None,4477,-2,-1,1,-1,-4,-4,-1,-1,1756999023249554872,13.564290046691895
0,2.469227314,20250904111703249,None,4477,-4,1,-4,2,0,1,2,0,1756999023249678373,13.564290046691895
0,2.476469278,20250904111703257,None,4476,2,0,-1,0,-3,0,1,-3,1756999023257022857,6.6631598472595215
0,2.476557016,20250904111703257,None,4476,-1,-1,-3,1,-1,-1,-1,-1,1756999023257136344,6.6631598472595215
0,2.484005213,20250904111703264,None,4476,-3,-2,-1,-1,-1,1,0,-3,1756999023264523983,6.6631598472595215
0,2.484146118,20250904111703264,None,4476,1,-2,-2,-1,1,1,-2,-1,1756999023264634132,6.6631598472595215
0,2.4991211890000002,20250904111703279,None,4474,-3,-1,-1,2,-2,0,-1,-4,1756999023279611587,5.71127986907959
0,2.499233007,20250904111703279,None,4474,-1,-2,1,-1,-2,-2,2,1,1756999023279752016,5.71127986907959
0,2.506614447,20250904111703287,None,4473,1,-3,-1,-2,-1,-2,-3,-1,1756999023287092447,14.040229797363281
0,2.506713629,20250904111703287,None,4473,0,1,1,1,0,-3,-1,-2,1756999023287212610,14.040229797363281
0,2.514079332,20250904111703294,None,4472,-2,-2,0,1,0,0,-1,1,1756999023294604063,7.8530097007751465
0,2.514183998,20250904111703294,None,4472,2,2,4,-2,2,2,1,2,1756999023294747591,7.8530097007751465
0,2.537250042,20250904111703317,None,4470,0,-1,-2,-1,1,-1,1,2,1756999023317687988,9.994739532470703
0,2.537401914,20250904111703318,None,4470,-1,-3,1,1,-1,0,-1,-1,1756999023317829847,9.994739532470703
0,2.5379972459999998,20250904111703318,None,4469,-1,-1,1,1,1,0,-2,0,1756999023318522691,9.994739532470703
0,2.538088083,20250904111703318,None,4469,-2,-3,-1,-1,-3,-3,-1,-4,1756999023318645715,9.994739532470703
0,2.5440204140000002,20250904111703324,None,4469,-1,0,-2,1,-3,-1,-3,3,1756999023324525833,9.04286003112793
0,2.544108391,20250904111703324,None,4469,0,0,2,-2,0,3,-2,2,1756999023324646234,9.04286003112793
0,2.559069395,20250904111703339,None,4466,-6,-1,-2,1,-1,1,-1,-3,1756999023339553117,13.088349342346191
0,2.559183836,20250904111703339,None,4466,0,0,0,1,-3,1,-2,-3,1756999023339683055,13.088349342346191
0,2.566508055,20250904111703347,None,4466,1,-2,-2,0,0,0,-1,0,1756999023347034454,6.187219619750977
0,2.566614628,20250904111703347,None,4466,1,0,-2,-2,-1,-3,1,0,1756999023347141742,6.187219619750977
0,2.573919535,20250904111703354,None,4465,0,0,-2,0,-3,-3,-3,-3,1756999023354457855,14.278200149536133
0,2.5740032189999997,20250904111703354,None,4465,1,1,-3,-2,0,-4,-1,1,1756999023354570865,14.278200149536133
0,2.589076996,20250904111703369,None,4463,-1,-1,-1,-4,0,-1,-4,-1,1756999023369570016,14.040229797363281
0,2.589197397,20250904111703369,None,4463,-2,0,-1,0,1,0,1,0,1756999023369714975,14.040229797363281
0,2.596657753,20250904111703377,None,4462,-3,-3,-2,1,-1,0,-1,-3,1756999023377058744,6.901129722595215
0,2.596815824,20250904111703377,None,4462,-1,-1,1,-1,-2,1,0,1,1756999023377331256,6.901129722595215
0,2.604346037,20250904111703385,None,4461,-1,1,-2,1,0,-5,-3,0,1756999023384788274,6.901129722595215
0,2.6044662,20250904111703385,None,4461,-2,-2,-3,-1,-1,-3,2,-5,1756999023384977102,6.901129722595215
0,2.619376182,20250904111703400,None,4460,-2,2,-2,0,-2,-1,0,0,1756999023399818897,8.566919326782227
0,2.619478702,20250904111703400,None,4460,-2,-2,2,0,0,0,0,-4,1756999023400012731,8.566919326782227
0,2.626926899,20250904111703407,None,4459,1,-2,0,-3,0,-3,-2,3,1756999023407399654,9.280829429626465
0,2.627051592,20250904111703407,None,4459,-3,-2,-3,-2,3,-3,-1,-1,1756999023407608509,9.280829429626465
0,2.634315729,20250904111703415,None,4457,-1,-2,-1,0,-1,-2,-1,0,1756999023414825439,12.612409591674805
0,2.6344385150000003,20250904111703415,None,4457,-2,-1,-1,-3,0,1,-4,0,1756999023415014505,12.612409591674805
0,2.6492846009999997,20250904111703430,None,4455,1,0,1,0,-2,3,-1,-1,1756999023429768562,6.425189971923828
0,2.649376154,20250904111703430,None,4455,-3,-3,0,1,-1,-5,0,-3,1756999023429956674,6.425189971923828
0,2.656864643,20250904111703437,None,4455,1,-2,-2,0,-1,-4,-1,0,1756999023437346458,14.278200149536133
0,2.656957865,20250904111703437,None,4455,-1,0,-2,-3,-3,-2,-4,-1,1756999023437536001,14.278200149536133
0,2.664369106,20250904111703445,None,4454,-3,-3,-4,-1,0,-1,0,0,1756999023444853544,5.949249744415283
0,2.6645023820000002,20250904111703445,None,4454,-3,1,-4,1,2,-1,-1,-2,1756999023445058345,5.949249744415283
0,2.679421425,20250904111703460,None,4452,1,1,0,-2,1,1,-3,-4,1756999023459870100,6.6631598472595215
0,2.679533958,20250904111703460,None,4452,0,-1,-3,0,-3,-1,3,2,1756999023460076570,6.6631598472595215
0,2.6868274210000003,20250904111703467,None,4451,-1,-2,0,1,0,-1,-2,-3,1756999023467320919,6.6631598472595215
0,2.686944723,20250904111703467,None,4451,-2,-3,-1,0,-1,-4,-3,-1,1756999023467515945,6.6631598472595215
0,2.694372654,20250904111703475,None,4451,2,2,0,0,0,-1,5,3,1756999023474848747,12.374439239501953
0,2.694479942,20250904111703475,None,4451,-3,-4,-1,0,1,-3,-2,-3,1756999023475055456,12.374439239501953
0,2.709304094,20250904111703490,None,4449,-1,1,0,0,0,-4,-3,-3,1756999023489778280,9.994739532470703
0,2.709385872,20250904111703490,None,4449,0,-1,-3,-2,-1,-2,-2,-1,1756999023489970922,9.994739532470703
0,2.716985941,20250904111703497,None,4447,1,1,-2,-1,1,2,-1,0,1756999023497462511,11.898499488830566
0,2.717085361,20250904111703497,None,4447,-1,-1,-1,-2,-4,2,0,0,1756999023497650861,11.898499488830566
0,2.72422409,20250904111703504,None,4446,1,-1,1,-1,0,0,0,-1,1756999023504527330,6.901129722595215
0,2.724453211,20250904111703505,None,4446,2,0,-5,3,-3,2,1,-1,1756999023504670858,6.901129722595215
0,2.738997459,20250904111703519,None,4445,-2,-2,-5,0,1,0,0,-4,1756999023519506692,14.278200149536133
0,2.739084959,20250904111703519,None,4445,-1,-1,0,-1,-3,-1,-1,-1,1756999023519663810,14.278200149536133
0,2.74653554,20250904111703527,None,4444,0,-1,-1,-1,0,1,0,-1,1756999023527019262,5.71127986907959
0,2.746630192,20250904111703527,None,4444,1,-3,-3,-3,-2,-4,-1,-1,1756999023527158975,5.71127986907959
0,2.753973722,20250904111703534,None,4443,-1,-2,0,0,-1,-2,2,1,1756999023534516334,14.516169548034668
0,2.754050732,20250904111703534,None,4443,-5,-2,0,-1,-2,2,3,1,1756999023534625053,14.516169548034668
0,2.769128561,20250904111703549,None,4442,-2,-2,1,-5,1,0,-3,-1,1756999023549525499,5.949249744415283
0,2.769448042,20250904111703550,None,4441,1,1,-3,-3,0,0,2,0,1756999023549650907,5.949249744415283
0,2.776552439,20250904111703557,None,4441,0,-1,2,-1,2,-1,-3,-1,1756999023557013750,13.564290046691895
0,2.7766749859999997,20250904111703557,None,4441,-3,2,-1,1,-1,-5,-1,-4,1756999023557153701,13.564290046691895
0,2.7839596269999998,20250904111703564,None,4440,-3,2,-1,2,0,-2,1,-1,1756999023564485788,8.804889678955078
0,2.784045935,20250904111703564,None,4440,1,1,-1,-1,2,-1,0,-1,1756999023564589262,8.804889678955078
0,2.79898262,20250904111703579,None,4437,-1,-2,-2,0,-2,-3,-3,-1,1756999023579501390,11.42255973815918
0,2.799094438,20250904111703579,None,4437,-2,-2,-1,-1,0,3,0,-3,1756999023579612016,11.42255973815918
0,2.806430101,20250904111703587,None,4437,0,-2,-1,-2,0,-1,-4,-1,1756999023586970329,11.42255973815918
0,2.80654192,20250904111703587,None,4437,1,-1,-3,1,-4,-3,0,-1,1756999023587084770,11.42255973815918
0,2.813983917,20250904111703594,None,4436,0,1,0,-1,-1,1,-3,0,1756999023594500541,7.37706995010376
0,2.814110517,20250904111703594,None,4436,-4,-3,-2,-3,-3,-1,0,-2,1756999023594630718,7.37706995010376
0,2.82901001,20250904111703609,None,4434,-1,-1,-1,-3,0,0,-3,-3,1756999023609440803,6.187219619750977
0,2.829147577,20250904111703609,None,4434,-3,-2,-1,3,-3,1,1,2,1756999023609571218,6.187219619750977
0,2.836436033,20250904111703617,None,4433,0,-2,0,0,-1,-1,-1,-2,1756999023616977930,14.516169548034668
0,2.836545229,20250904111703617,None,4433,1,-1,2,-2,0,-1,1,-1,1756999023617082834,14.516169548034668
0,2.843951464,20250904111703624,None,4433,-1,-2,-1,-1,1,-3,0,-2,1756999023624498844,14.516169548034668
0,2.844078779,20250904111703624,None,4433,2,-2,2,0,-1,1,-4,0,1756999023624614953,14.516169548034668
0,2.8589947220000003,20250904111703639,None,4431,-1,-3,1,-4,-2,-2,-1,-1,1756999023639497756,13.564290046691895
0,2.859087467,20250904111703639,None,4431,1,0,-1,-2,-2,0,1,-1,1756999023639631509,13.564290046691895
0,2.866471529,20250904111703647,None,4430,1,-3,-2,-1,-1,-1,-3,-1,1756999023646976947,8.328949928283691
0,2.8665754789999998,20250904111703647,None,4430,-1,-1,0,1,1,0,0,-2,1756999023647110939,8.328949928283691
0,2.873980045,20250904111703654,None,4429,-1,3,-1,-1,1,1,-2,3,1756999023654499530,11.184589385986328
0,2.874074697,20250904111703654,None,4429,-2,0,-1,-1,0,-5,-4,-3,1756999023654617786,11.184589385986328
0,2.889235496,20250904111703669,None,4428,0,-4,2,1,-1,0,-1,-2,1756999023669481039,10.946619987487793
0,2.889435053,20250904111703670,None,4428,-2,-1,0,0,0,1,5,0,1756999023669589996,10.946619987487793
0,2.896577358,20250904111703677,None,4426,-1,-2,-1,2,0,-4,-4,-1,1756999023676899671,8.09097957611084
0,2.896728516,20250904111703677,None,4426,-2,1,-1,0,-3,-2,-3,-1,1756999023676990509,8.09097957611084
0,2.904177427,20250904111703684,None,4425,1,-3,1,-2,2,0,1,-3,1756999023684436321,13.326319694519043
0,2.904364586,20250904111703685,None,4425,1,-4,-2,-2,0,-3,-1,-1,1756999023684531927,13.326319694519043
0,2.91928029,20250904111703700,None,4423,-2,-1,-1,-2,-1,-1,-3,-4,1756999023699515342,6.187219619750977
0,2.919906616,20250904111703700,None,4423,-1,-2,4,0,-3,-2,3,-1,1756999023699649333,14.75413990020752
0,2.9267385,20250904111703707,None,4423,1,1,-3,-3,0,-2,0,0,1756999023706963300,14.75413990020752
0,2.926924229,20250904111703707,None,4423,2,-1,0,-2,1,0,-1,-3,1756999023707066535,14.75413990020752
0,2.934404135,20250904111703715,None,4422,-2,-4,0,-1,-1,-1,1,-3,1756999023714612245,6.187219619750977
0,2.934618473,20250904111703715,None,4422,3,-2,-4,-1,-1,0,0,0,1756999023714784145,6.187219619750977
0,2.949268103,20250904111703730,None,4420,-2,-1,-2,1,-1,0,0,-2,1756999023729499101,7.8530097007751465
0,2.949448824,20250904111703730,None,4420,-3,-1,-1,1,-2,-3,0,0,1756999023729651451,7.8530097007751465
0,2.956640959,20250904111703737,None,4419,-1,-1,-2,-2,-1,1,1,-3,1756999023737097740,7.8530097007751465
0,2.956792593,20250904111703737,None,4419,0,-3,-3,1,0,-1,0,-2,1756999023737242937,7.8530097007751465
0,2.964447021,20250904111703745,None,4418,-2,-3,-3,-4,2,0,-1,1,1756999023744611740,11.42255973815918
0,2.96470046,20250904111703745,None,4418,-1,-2,-3,-3,1,-1,-1,-1,1756999023744796276,11.42255973815918
0,2.979245663,20250904111703759,None,4417,-2,2,1,-3,-2,0,0,0,1756999023759488105,8.804889678955078
0,2.979432583,20250904111703760,None,4417,0,3,-2,0,1,-1,3,-3,1756999023759616374,8.804889678955078
0,2.986825466,20250904111703767,None,4415,1,-1,-1,1,0,0,-4,-1,1756999023766990900,13.326319694519043
0,2.987024069,20250904111703767,None,4415,-1,-4,0,-2,0,0,2,0,1756999023767114639,13.326319694519043
0,2.994259596,20250904111703775,None,4414,-1,0,2,0,0,-2,1,-2,1756999023774515867,6.187219619750977
0,2.994509697,20250904111703775,None,4414,-3,-1,-1,-1,-2,-1,-1,-3,1756999023774655342,6.187219619750977
0,3.00930357,20250904111703790,None,4412,0,1,0,-1,-1,-2,-4,-1,1756999023789511203,14.278200149536133
0,3.009500027,20250904111703790,None,4412,3,1,-1,-1,-1,0,1,-2,1756999023789648294,14.278200149536133
0,3.016734362,20250904111703797,None,4412,-2,-2,2,-1,-3,1,1,-3,1756999023796962499,5.71127986907959
0,3.016916275,20250904111703797,None,4412,-2,0,-4,-2,-1,-2,-4,0,1756999023797080755,5.71127986907959
0,3.024171829,20250904111703804,None,4411,-2,-1,-1,-2,-1,2,-3,-3,1756999023804432868,14.278200149536133
0,3.024341106,20250904111703805,None,4411,1,1,0,-1,-2,0,1,0,1756999023804546117,14.278200149536133
0,3.039176226,20250904111703819,None,4409,1,2,0,-2,-4,-3,1,-3,1756999023819477319,7.615039825439453
0,3.039439678,20250904111703820,None,4409,0,-3,0,-2,2,1,-3,1,1756999023819604873,11.660530090332031
0,3.046744585,20250904111703827,None,4408,1,1,-1,1,0,0,1,-4,1756999023826977014,11.660530090332031
0,3.046981811,20250904111703827,None,4408,-5,0,-3,0,0,-1,1,0,1756999023827093362,9.994739532470703
0,3.054209232,20250904111703834,None,4408,-3,0,0,1,1,0,-2,-1,1756999023834622383,9.994739532470703
0,3.054377794,20250904111703835,None,4408,-2,1,1,0,-1,0,1,0,1756999023834802627,9.994739532470703
0,3.069078207,20250904111703849,None,4405,-2,-2,-2,-1,1,-3,-1,-3,1756999023849523305,12.850379943847656
0,3.069228172,20250904111703849,None,4405,1,1,-2,0,0,-1,1,1,1756999023849701881,12.850379943847656
0,3.076545477,20250904111703857,None,4404,0,-2,-2,1,-2,1,0,-3,1756999023857015132,6.6631598472595215
0,3.076657772,20250904111703857,None,4404,2,-1,-2,1,0,-4,-2,2,1756999023857162475,6.6631598472595215
0,3.091561556,20250904111703872,None,4403,-1,-1,-3,-1,0,-3,1,0,1756999023872025489,14.516169548034668
0,3.091660499,20250904111703872,None,4403,-1,-3,0,-2,2,-2,1,1,1756999023872173786,14.516169548034668
0,3.09902668,20250904111703879,None,4402,3,1,-4,2,-1,-3,0,0,1756999023879538774,5.71127986907959
0,3.099111557,20250904111703879,None,4402,0,0,-1,0,-3,-2,-1,0,1756999023879689693,5.71127986907959
0,3.106469154,20250904111703887,None,4401,-2,2,1,-3,-2,-1,0,0,1756999023886978626,14.516169548034668
0,3.1065557,20250904111703887,None,4401,-1,0,-1,-3,0,1,1,-2,1756999023887141704,14.516169548034668
0,3.121468782,20250904111703902,None,4399,1,0,0,-2,-1,-1,0,0,1756999023901973724,12.136469841003418
0,3.121560335,20250904111703902,None,4399,-3,1,-1,-2,-1,-1,0,-2,1756999023902112960,12.136469841003418
0,3.128940821,20250904111703909,None,4399,-2,-3,-1,0,0,-2,-1,2,1756999023909503936,12.136469841003418
0,3.129039287,20250904111703909,None,4399,-3,1,-2,-3,-1,-2,-2,2,1756999023909631967,12.136469841003418
0,3.136494398,20250904111703917,None,4398,-3,-1,4,2,-1,4,-2,0,1756999023917026519,9.280829429626465
0,3.136595726,20250904111703917,None,4398,1,-3,-1,0,2,1,4,1,1756999023917170763,9.280829429626465
0,3.151502371,20250904111703932,None,4395,2,2,1,-1,-1,0,-2,-4,1756999023931964635,12.374439239501953
0,3.151624203,20250904111703932,None,4395,0,-3,-2,1,-3,-3,-2,-1,1756999023932124853,12.374439239501953
0,3.159178018,20250904111703939,None,4394,-1,-2,1,-1,-1,-4,-2,1,1756999023939630270,7.139100074768066
0,3.15934515,20250904111703940,None,4394,-1,-4,-1,-3,0,-1,-3,1,1756999023939783573,7.139100074768066
0,3.166617393,20250904111703947,None,4394,-1,-1,0,0,-1,0,-1,-1,1756999023947113275,7.139100074768066
0,3.166790485,20250904111703947,None,4393,-3,-1,-1,-1,-1,-1,-1,0,1756999023947294235,7.139100074768066
0,3.181398392,20250904111703962,None,4392,-3,0,-2,3,-1,-1,-2,1,1756999023961951732,6.187219619750977
0,3.18147397,20250904111703962,None,4392,-3,-1,-2,2,-4,-1,-1,-2,1756999023962080955,6.187219619750977
0,3.188915729,20250904111703969,None,4391,-1,-2,0,-3,-1,1,3,0,1756999023969437599,14.75413990020752
0,3.188996792,20250904111703969,None,4391,-1,1,-3,-1,-1,1,0,0,1756999023969579935,14.75413990020752
0,3.196611166,20250904111703977,None,4390,1,1,0,-1,0,-2,-2,0,1756999023977114915,6.6631598472595215
0,3.19670105,20250904111703977,None,4390,0,0,-1,-2,-2,2,-2,-1,1756999023977288484,6.6631598472595215
0,3.211442947,20250904111703992,None,4389,3,-2,-5,-2,-3,-1,-2,-1,1756999023991952896,12.850379943847656
0,3.21160531,20250904111703992,None,4389,-4,-2,-3,-3,-4,-3,-3,-4,1756999023992113113,12.850379943847656
0,3.219089746,20250904111703999,None,4388,1,-1,1,-1,-1,-2,0,-4,1756999023999521017,9.04286003112793
0,3.219209909,20250904111703999,None,4388,-2,-3,-1,0,-4,-3,1,2,1756999023999660968,9.04286003112793
0,3.226465225,20250904111704007,None,4387,1,-1,-2,-2,1,1,0,1,1756999024006967306,10.470680236816406
0,3.2265803809999998,20250904111704007,None,4387,-2,-4,-1,0,0,-1,-3,0,1756999024007119417,10.470680236816406
0,3.241832018,20250904111704022,None,4384,-3,-2,0,-1,-4,0,-1,-1,1756999024022344589,7.615039825439453
0,3.24194026,20250904111704022,None,4384,-1,2,1,1,1,-2,0,-1,1756999024022464036,7.615039825439453
0,3.248926163,20250904111704029,None,4384,2,-3,-4,2,-1,-2,-3,-2,1756999024029424905,7.615039825439453
0,3.249048948,20250904111704029,None,4384,-2,-3,1,1,0,4,-1,0,1756999024029553890,7.615039825439453
0,3.256394863,20250904111704037,None,4383,-1,-1,-1,-1,-3,-2,1,0,1756999024036918878,14.278200149536133
0,3.25648427,20250904111704037,None,4383,-3,1,0,0,-1,-1,2,0,1756999024037032604,14.278200149536133
0,3.271512747,20250904111704052,None,4381,-1,0,0,1,-2,-2,-1,-1,1756999024051964521,14.992109298706055
0,3.271668911,20250904111704052,None,4381,2,-2,1,0,0,-2,0,-3,1756999024052139282,14.992109298706055
0,3.279054165,20250904111704059,None,4380,-2,1,0,0,-2,-2,-4,-3,1756999024059546709,6.187219619750977
0,3.279186249,20250904111704059,None,4380,0,-2,1,-1,1,0,-2,0,1756999024059689760,6.187219619750977
0,3.286461115,20250904111704067,None,4380,1,0,-3,-2,-2,0,-1,-1,1756999024066956996,6.187219619750977
0,3.286795854,20250904111704067,None,4380,0,-1,1,-2,1,-2,-4,-5,1756999024067097663,6.187219619750977
0,3.301616192,20250904111704082,None,4378,0,-1,-1,-3,1,-3,1,0,1756999024082021713,8.566919326782227
0,3.301758528,20250904111704082,None,4378,-2,-1,-1,-3,-1,0,-3,-2,1756999024082191467,8.566919326782227
0,3.309011221,20250904111704089,None,4377,-1,2,-1,-3,-5,-2,-1,-1,1756999024089470863,10.708649635314941
0,3.309129476,20250904111704089,None,4377,-2,0,-2,3,3,3,-2,0,1756999024089629411,10.708649635314941
0,3.3164801600000002,20250904111704097,None,4376,-5,-1,1,-1,0,-4,0,-2,1756999024097001791,11.42255973815918
0,3.316587686,20250904111704097,None,4376,-3,-3,-1,-2,2,0,-1,-2,1756999024097125291,11.42255973815918
0,3.331467867,20250904111704112,None,4374,2,1,-4,-2,0,1,-3,-2,1756999024111964702,7.8530097007751465
0,3.331579685,20250904111704112,None,4374,0,1,-1,2,-3,-1,0,-2,1756999024112097263,7.8530097007751465
0,3.339272737,20250904111704119,None,4373,-1,-1,0,-1,-1,-3,0,-1,1756999024119548082,14.040229797363281
0,3.339499473,20250904111704120,None,4373,0,-3,-1,2,-1,0,-1,3,1756999024119707107,14.040229797363281
0,3.346394777,20250904111704127,None,4372,-3,-1,-2,-5,-1,-1,0,-1,1756999024126859664,5.949249744415283
0,3.346537351,20250904111704127,None,4372,1,-1,-1,-2,-2,-1,-1,-1,1756999024126979112,5.949249744415283
0,3.361636162,20250904111704142,None,4370,0,-2,-3,0,0,-1,-1,-1,1756999024141987562,14.75413990020752
0,3.3617923259999998,20250904111704142,None,4370,0,3,-1,-3,0,0,0,3,1756999024142156362,14.75413990020752
0,3.368961811,20250904111704149,None,4370,-3,-1,1,3,-2,0,-3,-2,1756999024149443387,6.425189971923828
0,3.369189262,20250904111704149,None,4370,1,1,-2,2,-1,-1,4,-2,1756999024149610280,6.425189971923828
0,3.376461983,20250904111704157,None,4369,-4,-1,0,-1,1,-2,-1,-4,1756999024156909227,13.80225944519043
0,3.376591205,20250904111704157,None,4369,-4,-4,1,2,1,-1,0,-1,1756999024157041549,13.80225944519043
0,3.391577244,20250904111704172,None,4367,0,-1,-2,2,-1,2,-1,-1,1756999024171989679,11.42255973815918
0,3.391709804,20250904111704172,None,4367,1,-2,1,-3,0,-3,0,0,1756999024172137975,11.42255973815918
0,3.398936272,20250904111704179,None,4366,-2,3,1,-2,0,0,-4,0,1756999024179453134,11.42255973815918
0,3.399085045,20250904111704179,None,4366,-1,-3,-1,0,-4,0,-1,-3,1756999024179572820,11.42255973815918
0,3.406421184,20250904111704187,None,4365,-3,0,-1,-3,-3,-1,0,0,1756999024186912298,10.708649635314941
0,3.406545401,20250904111704187,None,4365,5,3,-2,1,0,-1,-1,-1,1756999024187055110,10.708649635314941
0,3.429620743,20250904111704210,None,4362,-6,3,1,1,2,2,-2,-1,1756999024210049629,6.187219619750977
0,3.429742575,20250904111704210,None,4362,-1,-4,-2,-4,1,-4,-2,-2,1756999024210185527,6.187219619750977
0,3.430296183,20250904111704211,None,4362,-3,-2,-4,-3,-3,-1,-2,-2,1756999024210880041,6.187219619750977
0,3.430395603,20250904111704211,None,4362,0,0,-1,-3,-1,1,1,0,1756999024210992336,6.187219619750977
0,3.436502457,20250904111704217,None,4361,-2,-5,-3,0,-2,-1,1,-1,1756999024216942548,14.516169548034668
0,3.436622143,20250904111704217,None,4361,-2,-1,0,-1,-1,-2,-2,0,1756999024217082738,14.516169548034668
0,3.451577186,20250904111704232,None,4360,0,-1,-1,2,2,-2,-1,-2,1756999024231977939,5.949249744415283
0,3.45170927,20250904111704232,None,4360,0,0,-4,0,-2,-1,-1,0,1756999024232138395,5.949249744415283
0,3.458939075,20250904111704239,None,4359,-4,1,0,0,0,0,0,0,1756999024239440202,14.040229797363281
0,3.459051609,20250904111704239,None,4359,-1,-3,0,-4,1,-1,-4,-4,1756999024239600658,14.040229797363281
0,3.466504812,20250904111704247,None,4358,0,-4,-1,-2,0,-3,2,1,1756999024246974706,7.615039825439453
0,3.466633797,20250904111704247,None,4358,-1,-3,-1,-3,-3,-2,-1,-1,1756999024247120857,7.615039825439453
0,3.481480598,20250904111704262,None,4356,-1,-4,3,-3,1,-2,-1,-1,1756999024261953830,10.232709884643555
0,3.481595039,20250904111704262,None,4356,-2,-2,-4,-2,-3,-2,0,-2,1756999024262104749,10.232709884643555
0,3.488835335,20250904111704269,None,4355,-2,-2,1,0,2,0,0,0,1756999024269356012,10.232709884643555
0,3.488912821,20250904111704269,None,4355,1,0,1,-1,0,-1,-2,-2,1756999024269487380,10.232709884643555
0,3.496392965,20250904111704277,None,4355,-2,3,2,2,-3,0,-3,0,1756999024276922225,9.04286003112793
0,3.496488094,20250904111704277,None,4355,-1,1,-2,0,-2,1,0,0,1756999024277049779,9.04286003112793
0,3.511382818,20250904111704292,None,4352,-1,1,-3,1,0,-3,-2,-2,1756999024291879415,6.425189971923828
0,3.511481523,20250904111704292,None,4352,2,-2,-3,-4,-2,-2,0,-4,1756999024291964530,6.425189971923828
0,3.518889904,20250904111704299,None,4351,0,0,-1,0,1,0,0,-3,1756999024299416542,14.75413990020752
0,3.518985748,20250904111704299,None,4351,0,-1,0,-1,-2,-1,1,-3,1756999024299544811,14.75413990020752
0,3.534020185,20250904111704314,None,4350,-2,-3,-2,-1,0,-3,-3,1,1756999024314374446,5.71127986907959
0,3.53420639,20250904111704314,None,4350,-3,-1,-1,-2,-1,1,-1,0,1756999024314509391,5.71127986907959
0,3.541483402,20250904111704322,None,4349,1,1,4,0,-3,-2,-3,0,1756999024321964263,14.278200149536133
0,3.541611433,20250904111704322,None,4349,-4,1,-2,0,-1,-2,1,-2,1756999024322097778,14.278200149536133
0,3.548975229,20250904111704329,None,4348,-2,1,-1,0,-1,-1,-4,-3,1756999024329463243,7.139100074768066
0,3.549063682,20250904111704329,None,4348,0,-3,-1,1,-2,-2,-1,-3,1756999024329613208,7.139100074768066
0,3.556424856,20250904111704337,None,4347,-1,-2,0,-1,0,1,0,-3,1756999024336907148,12.374439239501953
0,3.55653882,20250904111704337,None,4347,2,-1,-2,-5,-2,0,0,1,1756999024337034463,12.374439239501953
0,3.57137537,20250904111704352,None,4346,-1,1,0,-3,0,1,2,1,1756999024351913452,9.756770133972168
0,3.5714921950000003,20250904111704352,None,4346,-2,-3,-1,-5,-2,1,0,-1,1756999024352043867,9.756770133972168
0,3.578847647,20250904111704359,None,4345,0,2,-2,-4,0,2,-3,-1,1756999024359390020,9.756770133972168
0,3.578941107,20250904111704359,None,4345,-1,2,-1,-2,4,-1,-4,-1,1756999024359519243,9.756770133972168
0,3.586442232,20250904111704367,None,4343,-2,-4,-3,0,0,0,1,-1,1756999024366934776,12.850379943847656
0,3.586548328,20250904111704367,None,4343,-1,-2,-2,0,0,-2,2,1,1756999024367096662,12.850379943847656
0,3.601552248,20250904111704382,None,4341,0,-2,-2,-3,0,-1,2,3,1756999024382021427,6.6631598472595215
0,3.601667166,20250904111704382,None,4341,1,-2,-1,-1,0,0,-1,-1,1756999024382158756,6.6631598472595215
0,3.608977795,20250904111704389,None,4340,-1,1,0,1,2,-1,1,-1,1756999024389514923,14.516169548034668
0,3.609074592,20250904111704389,None,4340,-4,-1,-1,-3,0,-1,1,2,1756999024389655351,14.516169548034668
0,3.616427183,20250904111704397,None,4340,-3,-2,-2,-1,-1,3,0,-1,1756999024396900653,5.71127986907959
0,3.616552591,20250904111704397,None,4340,1,-1,0,-1,-4,-2,-1,1,1756999024397026300,5.71127986907959
0,3.631539345,20250904111704412,None,4338,1,2,2,1,1,2,-2,1,1756999024411950111,6.425189971923828
0,3.631696224,20250904111704412,None,4338,-2,2,-2,-1,-1,-3,1,-1,1756999024412121772,6.425189971923828
0,3.646589517,20250904111704427,None,4336,-1,-1,-3,0,-2,1,0,-2,1756999024427033424,12.136469841003418
0,3.646731853,20250904111704427,None,4336,-2,-2,0,0,-3,0,1,-4,1756999024427201271,12.136469841003418
0,3.6538434029999998,20250904111704434,None,4336,3,-1,4,1,0,-3,0,1,1756999024434370994,9.518799781799316
0,3.653928041,20250904111704434,None,4336,-2,-2,1,3,-2,0,0,-3,1756999024434507369,9.518799781799316
0,3.6615715030000002,20250904111704442,None,4335,-5,0,-4,0,-2,1,-1,0,1756999024441971778,9.994739532470703
0,3.661679983,20250904111704442,None,4335,-4,-2,1,0,0,-1,0,1,1756999024442142724,9.994739532470703
0,3.6689388750000003,20250904111704449,None,4333,-1,-1,-1,-2,-1,-1,-5,-4,1756999024449439764,12.136469841003418
0,3.6690266129999998,20250904111704449,None,4333,1,1,1,2,-2,-3,0,-2,1756999024449586868,12.136469841003418
0,3.676393986,20250904111704457,None,4332,1,-5,0,0,-2,0,0,-1,1756999024456906080,7.139100074768066
0,3.676472425,20250904111704457,None,4332,-1,0,2,0,1,-1,0,0,1756999024457033157,7.139100074768066
0,3.691497803,20250904111704472,None,4331,0,0,-1,0,2,0,0,-1,1756999024471994638,14.516169548034668
0,3.6916332240000003,20250904111704472,None,4331,-4,-5,-1,-1,-3,0,1,-1,1756999024472136974,14.516169548034668
0,3.6989347930000003,20250904111704479,None,4330,-1,-2,-2,0,-4,-1,0,-2,1756999024479428768,6.187219619750977
0,3.699072361,20250904111704479,None,4330,0,1,-1,0,2,0,-3,0,1756999024479623079,6.187219619750977
0,3.714134216,20250904111704494,None,4328,1,1,-2,0,-1,1,-1,-1,1756999024494538784,6.187219619750977
0,3.714284658,20250904111704495,None,4328,1,-4,0,-1,0,1,0,1,1756999024494708538,6.187219619750977
0,3.721411943,20250904111704502,None,4327,2,-3,-1,-3,-1,-2,-1,-3,1756999024501911401,13.80225944519043
0,3.7215464110000003,20250904111704502,None,4327,2,-2,-2,2,-1,0,0,-2,1756999024502057790,13.80225944519043
0,3.728951454,20250904111704509,None,4327,0,-2,-2,0,1,0,0,1,1756999024509442567,13.80225944519043
0,3.729035854,20250904111704509,None,4327,0,2,-2,-1,-2,-4,1,-2,1756999024509576559,13.80225944519043
0,3.736470222,20250904111704517,None,4326,-1,1,-3,1,1,0,-3,0,1756999024516863822,9.04286003112793
0,3.7366132739999998,20250904111704517,None,4326,-1,-1,2,1,-4,1,-1,-3,1756999024517004013,9.04286003112793
0,3.7514996529999998,20250904111704532,None,4323,-2,-1,0,-1,0,-2,-2,-3,1756999024531937599,11.660530090332031
0,3.751643658,20250904111704532,None,4323,-2,1,-3,1,-2,-4,0,-2,1756999024532085418,11.660530090332031
0,3.7589054109999998,20250904111704539,None,4322,1,-2,0,2,2,0,-4,0,1756999024539394617,11.660530090332031
0,3.759036302,20250904111704539,None,4322,-2,1,1,0,-1,-2,-2,0,1756999024539548873,11.660530090332031
0,3.774101257,20250904111704554,None,4321,2,1,-1,-1,0,0,-2,-2,1756999024554429769,13.80225944519043
0,3.774302006,20250904111704555,None,4321,1,-2,-2,0,-2,0,-2,1,1756999024554603338,13.80225944519043
0,3.781533956,20250904111704562,None,4320,1,-1,-3,-1,-2,1,-4,-3,1756999024561950922,5.71127986907959
0,3.7817006109999998,20250904111704562,None,4320,0,-1,1,-1,1,-1,-3,0,1756999024562128305,5.71127986907959
0,3.789015055,20250904111704569,None,4319,1,1,2,1,-1,-3,-1,-1,1756999024569459915,14.516169548034668
0,3.789165497,20250904111704569,None,4319,-2,-2,0,0,0,-1,1,-4,1756999024569634199,14.516169548034668
0,3.796379089,20250904111704577,None,4318,-1,-2,-2,0,0,-2,1,-1,1756999024576873064,14.516169548034668
0,3.796639919,20250904111704577,None,4318,0,-1,-1,1,-4,0,2,-2,1756999024577003240,6.187219619750977
0,3.811490059,20250904111704592,None,4316,-1,-1,1,-3,-3,0,-1,1,1756999024591935634,13.326319694519043
0,3.811645746,20250904111704592,None,4316,-1,1,-1,-1,1,0,1,1,1756999024592042446,13.326319694519043
0,3.818929911,20250904111704599,None,4316,-1,0,-2,-2,-3,-1,-2,0,1756999024599412918,8.566919326782227
0,3.819070101,20250904111704599,None,4316,-2,-3,0,-2,1,0,-2,-2,1756999024599555015,8.566919326782227
0,3.833976984,20250904111704614,None,4314,-2,-2,-3,-3,-3,0,1,0,1756999024614394426,11.184589385986328
0,3.834146976,20250904111704614,None,4314,1,-1,-3,-3,-1,0,0,-3,1756999024614543914,11.184589385986328
0,3.841439009,20250904111704622,None,4313,1,-2,-1,1,-3,0,-1,0,1756999024621865034,11.184589385986328
0,3.841647386,20250904111704622,None,4313,-1,-3,2,-1,-1,0,-1,1,1756999024622032165,11.184589385986328
0,3.848904371,20250904111704629,None,4311,-2,3,-2,1,-3,0,-3,2,1756999024629373550,8.09097957611084
0,3.849044323,20250904111704629,None,4311,-5,-1,0,0,0,-1,-1,1,1756999024629508018,8.09097957611084
0,3.856590748,20250904111704637,None,4311,1,-3,-1,-4,0,0,-1,-1,1756999024637027025,14.040229797363281
0,3.856739759,20250904111704637,None,4311,-1,-3,-2,2,-3,-3,0,-1,1756999024637172460,14.040229797363281
0,3.8716480730000002,20250904111704652,None,4309,0,-3,0,-4,-2,-3,-1,-1,1756999024652014732,14.75413990020752
0,3.871802807,20250904111704652,None,4309,0,-1,0,-1,0,1,-2,-4,1756999024652195692,14.75413990020752
0,3.879043341,20250904111704659,None,4308,-2,1,-2,2,-2,0,-2,-5,1756999024659511566,5.949249744415283
0,3.879195213,20250904111704659,None,4308,-2,1,-6,1,-1,0,0,-3,1756999024659657239,5.949249744415283
0,3.893888473,20250904111704674,None,4307,-1,-1,2,-5,-1,-1,0,1,1756999024674315929,13.80225944519043
0,3.894024849,20250904111704674,None,4307,-3,-3,-1,1,-1,1,-2,0,1756999024674481391,13.80225944519043
0,3.9014649390000002,20250904111704682,None,4306,0,-1,-4,0,0,-2,-1,-3,1756999024681867361,8.09097957611084
0,3.901673794,20250904111704682,None,4306,0,0,-1,-3,0,-4,0,-1,1756999024682019948,8.09097957611084
0,3.90900135,20250904111704689,None,4305,-1,-2,-2,1,-3,-2,-2,0,1756999024689432144,12.136469841003418
0,3.909162044,20250904111704689,None,4305,2,-2,-3,2,0,-2,-1,0,1756999024689582109,12.136469841003418
0,3.916459322,20250904111704697,None,4304,3,-2,-2,1,-3,-4,-2,-1,1756999024696908950,10.708649635314941
0,3.916630745,20250904111704697,None,4304,-1,0,1,-4,-4,1,0,-5,1756999024697052001,10.708649635314941
0,3.931470871,20250904111704712,None,4303,1,-1,-3,-1,-4,0,0,1,1756999024711904048,8.566919326782227
0,3.9316504,20250904111704712,None,4303,-2,-2,-4,4,0,-2,-1,0,1756999024712087392,8.566919326782227
0,3.938916921,20250904111704719,None,4301,-2,-4,1,-1,0,-4,1,-1,1756999024719336509,13.326319694519043
0,3.939049482,20250904111704719,None,4301,-1,-1,-3,-1,-2,-1,1,-1,1756999024719462871,13.326319694519043
0,3.953932285,20250904111704734,None,4299,-1,4,-1,2,-1,-3,-5,-2,1756999024734338760,14.75413990020752
0,3.954073906,20250904111704734,None,4299,0,2,1,0,-1,1,0,-1,1756999024734481811,14.75413990020752
0,3.961315155,20250904111704742,None,4298,0,-1,-1,-1,-4,-1,-1,2,1756999024741807937,5.71127986907959
0,3.96142745,20250904111704742,None,4298,-1,-2,-2,3,3,-1,-1,0,1756999024741937875,5.71127986907959
0,3.977103472,20250904111704757,None,4297,1,2,0,-1,2,-1,-2,-2,1756999024757530927,14.278200149536133
0,3.9772448540000003,20250904111704757,None,4297,2,1,-3,-4,0,0,2,3,1756999024757722616,14.278200149536133
0,3.977739096,20250904111704758,None,4297,-3,-1,-3,-2,-1,-3,-2,-5,1756999024758279561,14.278200149536133
0,3.977867126,20250904111704758,None,4297,-1,0,-2,1,-1,0,0,2,1756999024758398771,14.278200149536133
0,3.991417646,20250904111704772,None,4295,0,0,0,-1,-3,1,1,-1,1756999024771886587,11.898499488830566
0,3.9916286469999998,20250904111704772,None,4295,-1,0,-1,1,1,-3,0,-2,1756999024772030353,11.898499488830566
0,3.999003649,20250904111704779,None,4294,-1,-4,1,0,-1,-1,3,-1,1756999024779393672,9.994739532470703
0,3.999153852,20250904111704779,None,4294,1,-1,0,-2,0,2,-3,-1,1756999024779542446,9.994739532470703
0,4.013957024,20250904111704794,None,4293,1,-1,-1,-4,-1,-2,1,0,1756999024794402599,9.280829429626465
0,4.014117002,20250904111704794,None,4293,-1,1,1,-1,-1,0,0,-1,1756999024794551372,9.280829429626465
0,4.021467447,20250904111704802,None,4291,-2,-1,-1,-2,0,-2,0,0,1756999024801905632,12.850379943847656
0,4.021637201,20250904111704802,None,4291,0,-3,0,-1,-1,1,0,1,1756999024802053451,12.850379943847656
0,4.02897644,20250904111704809,None,4290,2,-4,-1,0,1,0,1,-1,1756999024809390544,6.187219619750977
0,4.029163599,20250904111704809,None,4290,0,-2,-1,0,-2,0,1,-4,1756999024809546947,6.187219619750977
0,4.043899059,20250904111704824,None,4288,0,0,0,-2,-2,1,-4,-1,1756999024824353218,14.278200149536133
0,4.044042826,20250904111704824,None,4288,-1,-1,2,-2,-1,0,0,-1,1756999024824530601,14.278200149536133
0,4.051458359,20250904111704832,None,4288,1,-2,-2,0,1,0,0,1,1756999024831966876,5.71127986907959
0,4.051915169,20250904111704832,None,4288,-1,0,-1,-1,-2,1,-6,-2,1756999024832126140,5.71127986907959
0,4.058891058,20250904111704839,None,4287,-1,0,-2,-1,-1,2,1,-2,1756999024839365959,14.278200149536133
0,4.059022665,20250904111704839,None,4287,-4,-1,-1,-2,-2,-3,-3,0,1756999024839544057,14.278200149536133
0,4.073917866,20250904111704854,None,4285,0,0,2,0,0,-1,-1,0,1756999024854379415,11.898499488830566
0,4.074044704,20250904111704854,None,4285,-2,0,0,-5,1,0,-1,-2,1756999024854524850,11.898499488830566
0,4.081334352,20250904111704862,None,4284,0,-1,1,0,-2,0,0,0,1756999024861845254,9.756770133972168
0,4.081443548,20250904111704862,None,4284,-5,-1,-1,-1,-1,-3,-3,-2,1756999024861960411,9.756770133972168
0,4.088919163,20250904111704869,None,4284,1,0,0,-3,1,-1,0,-2,1756999024869373083,9.756770133972168
0,4.089079618,20250904111704869,None,4284,-1,-1,-5,-1,-1,2,-2,0,1756999024869508981,9.756770133972168
0,4.104016781,20250904111704884,None,4281,2,0,1,-1,0,1,-3,0,1756999024884446859,12.374439239501953
0,4.104161739,20250904111704884,None,4281,-2,-1,3,3,0,-1,0,2,1756999024884672880,12.374439239501953
0,4.111352205,20250904111704892,None,4280,0,-1,-3,0,-1,0,-3,0,1756999024891843318,6.901129722595215
0,4.111463547,20250904111704892,None,4280,-4,2,-3,2,1,-2,0,-4,1756999024891982793,6.901129722595215
0,4.118840456,20250904111704899,None,4279,-2,-2,0,1,-1,0,-1,1,1756999024899346828,14.516169548034668
0,4.118937254,20250904111704899,None,4279,2,-1,-1,-2,0,2,-2,1,1756999024899484157,14.516169548034668
0,4.13398385,20250904111704914,None,4278,-2,2,1,-1,-1,2,0,0,1756999024914498805,5.71127986907959
0,4.134101629,20250904111704914,None,4278,-1,-2,0,-3,-2,-2,-1,0,1756999024914638519,5.71127986907959
0,4.1414783,20250904111704922,None,4277,-3,-3,0,1,1,-1,0,0,1756999024921829462,14.516169548034668
0,4.141750097,20250904111704922,None,4277,2,1,-2,-2,0,-1,-2,-1,1756999024921969413,14.516169548034668
0,4.148862362,20250904111704929,None,4276,-1,-2,-2,-1,-1,-2,-1,-2,1756999024929326772,6.425189971923828
0,4.148978948,20250904111704929,None,4276,-1,-1,0,-1,-3,0,-2,-5,1756999024929470777,6.425189971923828
0,4.163950443,20250904111704944,None,4275,-2,1,-4,0,0,-2,1,-1,1756999024944380521,12.612409591674805
0,4.164100408,20250904111704944,None,4275,-1,2,-3,-1,-2,-1,-2,-2,1756999024944544792,12.612409591674805
0,4.171374798,20250904111704952,None,4274,1,0,0,0,-1,-2,-2,-3,1756999024951828956,9.04286003112793
0,4.171504497,20250904111704952,None,4274,-2,0,0,1,-3,-1,1,-1,1756999024951985597,9.04286003112793
0,4.178771257,20250904111704959,None,4273,-3,-4,-3,-1,0,-1,-4,-3,1756999024959253549,9.994739532470703
0,4.178875208,20250904111704959,None,4273,0,1,1,-3,-2,-1,3,1,1756999024959370613,9.994739532470703
0,4.193893671,20250904111704974,None,4270,-3,0,-3,-3,-1,0,-1,-1,1756999024974326372,7.139100074768066
0,4.194066524,20250904111704974,None,4270,-1,1,-2,-2,0,0,-2,0,1756999024974488735,7.139100074768066
0,4.201412439,20250904111704982,None,4269,-1,-2,-3,-2,-1,0,-1,-1,1756999024981846809,7.139100074768066
0,4.20157671,20250904111704982,None,4269,0,0,0,-1,-1,1,-2,0,1756999024982008934,7.139100074768066
0,4.208918571,20250904111704989,None,4269,1,1,1,0,1,-2,1,1,1756999024989367008,14.516169548034668
0,4.209029913,20250904111704989,None,4269,1,-1,2,-1,1,-3,-1,2,1756999024989543199,14.516169548034668
0,4.223913669,20250904111705004,None,4267,-2,-2,-1,1,0,0,0,-2,1756999025004359722,14.75413990020752
0,4.224048376,20250904111705004,None,4267,-1,-3,-1,0,0,-1,-2,-2,1756999025004534959,14.75413990020752
0,4.231374264,20250904111705012,None,4266,-1,-4,-3,1,-1,-3,-4,-3,1756999025011846542,5.949249744415283
0,4.231477499,20250904111705012,None,4266,-1,0,1,-1,-1,0,-4,3,1756999025012005805,5.949249744415283
0,4.238798618,20250904111705019,None,4265,-3,1,-4,0,-4,-1,0,-2,1756999025019255638,5.949249744415283
0,4.23895812,20250904111705019,None,4265,1,3,-1,-1,0,-2,1,0,1756999025019383668,5.949249744415283
0,4.253927469,20250904111705034,None,4263,1,1,-1,0,-1,-1,1,-1,1756999025034365653,7.8530097007751465
0,4.254074812,20250904111705034,None,4263,-1,-1,-1,-1,-1,-1,-3,1,1756999025034533739,7.8530097007751465
0,4.261366129,20250904111705042,None,4263,-2,-1,-1,0,0,-1,1,-2,1756999025041817665,10.708649635314941
0,4.261513471,20250904111705042,None,4263,-4,-3,0,-2,0,1,0,-2,1756999025041938066,10.708649635314941
0,4.268850565,20250904111705049,None,4262,1,0,-2,0,-1,-2,-4,-1,1756999025049334287,11.184589385986328
0,4.268969059,20250904111705049,None,4262,0,-1,1,-3,-1,-2,-1,-1,1756999025049489259,11.184589385986328
0,4.283828497,20250904111705064,None,4260,-2,-4,-2,-2,-2,-3,-4,-1,1756999025064303636,7.615039825439453
0,4.283977032,20250904111705064,None,4260,0,-2,0,1,-1,1,2,0,1756999025064428091,7.615039825439453
0,4.291315555,20250904111705072,None,4258,-1,-3,-1,0,0,-5,0,-4,1756999025071771621,13.564290046691895
0,4.291438341,20250904111705072,None,4258,-2,0,-1,1,3,-4,-2,-1,1756999025071905136,13.564290046691895
0,4.298749208,20250904111705079,None,4258,1,1,-1,-2,0,0,0,-3,1756999025079269409,5.949249744415283
0,4.298866272,20250904111705079,None,4258,-1,0,-2,-1,2,-1,-1,-2,1756999025079389095,5.949249744415283
0,4.313739538,20250904111705094,None,4256,-3,-2,0,-2,-4,-2,-2,-2,1756999025094238281,5.949249744415283
0,4.3138487340000005,20250904111705094,None,4256,0,-1,0,-1,-3,-2,-2,-5,1756999025094374418,5.949249744415283
0,4.321233988,20250904111705101,None,4255,-1,0,0,-2,-2,-1,-2,-3,1756999025101740121,13.80225944519043
0,4.3213372230000004,20250904111705102,None,4255,1,2,0,0,0,-1,-2,0,1756999025101848840,13.80225944519043
0,4.328775644,20250904111705109,None,4254,-3,0,2,0,0,0,-1,-2,1756999025109277248,13.80225944519043
0,4.328893185,20250904111705109,None,4254,-2,1,2,1,-3,0,-2,1,1756999025109397411,13.80225944519043
0,4.343763113,20250904111705124,None,4253,-2,-3,-1,-1,-2,-2,-1,0,1756999025124254226,11.184589385986328
0,4.343931913,20250904111705124,None,4253,-2,2,0,0,-1,-1,-2,-3,1756999025124370098,11.184589385986328
0,4.351295233,20250904111705132,None,4252,-1,-3,-2,-3,-1,-2,-4,1,1756999025131769895,10.946619987487793
0,4.35145688,20250904111705132,None,4252,-1,2,-4,-5,1,-2,1,-2,1756999025131892681,10.946619987487793
0,4.35862422,20250904111705139,None,4251,0,-1,-2,-4,1,2,0,-3,1756999025139162540,8.328949928283691
0,4.358714819,20250904111705139,None,4251,-3,0,0,1,-1,-2,-3,-1,1756999025139245748,8.328949928283691
0,4.373912573,20250904111705154,None,4249,0,1,1,0,0,-2,0,-2,1756999025154310703,14.040229797363281
0,4.374087334,20250904111705154,None,4249,-1,-1,-2,1,1,1,3,0,1756999025154464006,14.040229797363281
0,4.381310463,20250904111705162,None,4248,-1,-2,-2,-1,0,1,-3,0,1756999025161782741,6.425189971923828
0,4.381463051,20250904111705162,None,4248,0,-2,1,-2,0,-2,-3,-2,1756999025161910772,6.425189971923828
0,4.388851881,20250904111705169,None,4247,1,1,-2,0,-2,-3,-2,-1,1756999025169352769,14.992109298706055
0,4.38898921,20250904111705169,None,4247,-2,1,-5,2,-2,-1,-1,-4,1756999025169484615,14.992109298706055
0,4.403894186,20250904111705184,None,4245,-1,-6,0,1,1,0,-1,0,1756999025184304714,14.278200149536133
0,4.404108286,20250904111705184,None,4245,-1,-7,0,-3,-2,2,-1,-1,1756999025184504270,14.278200149536133
0,4.411455393,20250904111705192,None,4245,0,3,-2,-2,-1,-2,-3,-1,1756999025191883802,14.278200149536133
0,4.411731481,20250904111705192,None,4244,-2,-1,-1,-3,1,-1,-2,-2,1756999025192081928,14.278200149536133
0,4.41876626,20250904111705199,None,4244,-1,-2,3,-2,-2,-1,-3,-1,1756999025199286699,7.8530097007751465
0,4.418885708,20250904111705199,None,4244,-1,3,1,-2,0,1,2,-1,1756999025199420690,7.8530097007751465
0,4.433808088,20250904111705214,None,4242,-1,1,-2,-2,-3,2,3,1,1756999025214279651,10.232709884643555
0,4.433927774,20250904111705214,None,4242,-2,-3,-1,-1,-3,-2,0,0,1756999025214410543,10.232709884643555
0,4.441459656,20250904111705222,None,4241,-2,-1,0,-1,-4,-1,-1,-3,1756999025221882581,8.804889678955078
0,4.441641569,20250904111705222,None,4241,0,0,-1,2,0,2,-5,-1,1756999025222060203,8.804889678955078
0,4.448770523,20250904111705229,None,4239,1,-1,1,-2,-2,0,-1,-3,1756999025229240417,8.804889678955078
0,4.448906183,20250904111705229,None,4239,-2,-6,-4,-1,-1,-1,-3,1,1756999025229418277,8.804889678955078
0,4.46385169,20250904111705244,None,4238,0,-5,-1,1,-2,-2,0,-5,1756999025244298219,6.187219619750977
0,4.463976383,20250904111705244,None,4238,-1,2,-1,-1,-3,-1,0,-2,1756999025244475126,6.187219619750977
0,4.471262216,20250904111705251,None,4237,0,-2,-5,-1,-1,3,-1,-1,1756999025251775026,14.75413990020752
0,4.471382141,20250904111705252,None,4237,-1,0,1,-1,-3,-3,0,-6,1756999025251903295,14.75413990020752
0,4.478731632,20250904111705259,None,4236,-3,0,-2,-2,1,1,1,0,1756999025259184598,5.949249744415283
0,4.478890657,20250904111705259,None,4236,2,-1,-4,-1,-1,-1,-2,-3,1756999025259303569,5.949249744415283
0,4.493855238,20250904111705274,None,4235,-3,-1,-1,0,-3,-2,0,-2,1756999025274272680,14.278200149536133
0,4.494027376,20250904111705274,None,4235,1,1,0,-2,-4,-2,-2,0,1756999025274399280,14.278200149536133
0,4.501276016,20250904111705281,None,4234,-1,1,0,-1,-1,-4,-3,2,1756999025281783342,7.37706995010376
0,4.501393795,20250904111705282,None,4234,-4,-5,0,-1,1,0,0,0,1756999025281905412,7.37706995010376
0,4.508769989,20250904111705289,None,4233,1,-7,1,-3,-2,-2,-2,1,1756999025289258956,12.136469841003418
0,4.508886814,20250904111705289,None,4233,-2,-4,-3,0,-4,-3,4,2,1756999025289376020,12.136469841003418
0,4.523720026,20250904111705304,None,4231,-2,1,-2,-1,0,2,-2,-1,1756999025304188966,9.756770133972168
0,4.523827791,20250904111705304,None,4231,-1,-3,-1,2,0,-2,0,-1,1756999025304370880,9.756770133972168
0,4.531301975,20250904111705312,None,4231,1,0,0,-2,4,-2,-2,-2,1756999025311808109,9.756770133972168
0,4.53136754,20250904111705312,None,4231,-2,2,0,-2,0,1,-1,1,1756999025311940431,9.756770133972168
0,4.5389702320000005,20250904111705319,None,4229,-3,-2,0,-2,-2,-1,-3,-2,1756999025319418907,13.088349342346191
0,4.539099693,20250904111705319,None,4229,-1,-1,0,0,-2,-2,0,0,1756999025319600343,13.088349342346191
0,4.553921938,20250904111705334,None,4227,2,-1,-2,2,0,-1,-2,0,1756999025334355115,14.516169548034668
0,4.554038048,20250904111705334,None,4227,0,1,1,1,2,-1,-2,0,1756999025334532499,14.516169548034668
0,4.561222315,20250904111705341,None,4226,-1,2,2,-1,1,-4,-1,-2,1756999025341737270,5.71127986907959
0,4.561331749,20250904111705342,None,4226,0,-2,-1,3,-1,1,2,1,1756999025341893672,5.71127986907959
0,4.56870842,20250904111705349,None,4226,1,1,-2,-3,-1,1,-1,0,1756999025349243402,5.71127986907959
0,4.56878519,20250904111705349,None,4226,4,3,0,-3,-3,-3,-2,1,1756999025349371194,5.71127986907959
0,4.583700418,20250904111705364,None,4224,-2,1,-2,-3,-1,-2,0,-1,1756999025364199399,6.6631598472595215
0,4.583807707,20250904111705364,None,4224,-1,-1,-2,0,-3,-2,-1,-1,1756999025364369153,6.6631598472595215
0,4.591239691,20250904111705371,None,4223,-3,-1,-2,-1,-2,-4,0,-2,1756999025371730327,12.374439239501953
0,4.591326713,20250904111705372,None,4223,0,3,-2,-4,-1,-1,0,1,1756999025371850490,12.374439239501953
0,4.598684549,20250904111705379,None,4222,1,0,1,-1,0,0,-5,-2,1756999025379204273,9.280829429626465
0,4.598793268,20250904111705379,None,4222,-1,0,0,1,0,0,-3,-1,1756999025379332304,9.280829429626465
0,4.613722563,20250904111705394,None,4221,-1,-2,-1,2,0,-4,0,-2,1756999025394204139,10.232709884643555
0,4.613831282,20250904111705394,None,4221,1,0,1,1,0,1,0,-1,1756999025394362926,10.232709884643555
0,4.621197462,20250904111705401,None,4219,-2,-5,-3,-3,-2,-3,-2,1,1756999025401700496,12.374439239501953
0,4.621310234,20250904111705402,None,4219,-1,-3,-2,0,1,-2,0,3,1756999025401806831,12.374439239501953
0,4.628807306,20250904111705409,None,4218,-1,-1,-1,-2,0,0,2,2,1756999025409294366,7.139100074768066
0,4.628895283,20250904111705409,None,4218,-3,-2,-2,0,-2,-3,-2,1,1756999025409446716,7.139100074768066
0,4.643723249,20250904111705424,None,4216,-1,-3,-1,-1,0,-1,0,-3,1756999025424211740,14.516169548034668
0,4.643965721,20250904111705424,None,4216,-3,-1,-2,-3,-3,0,2,-2,1756999025424424171,5.949249744415283
0,4.651551485,20250904111705432,None,4215,-6,2,0,-1,-1,3,0,-1,1756999025431940793,5.949249744415283
0,4.65173316,20250904111705432,None,4215,-1,1,0,-3,0,-5,-2,0,1756999025432111501,5.949249744415283
0,4.658923149,20250904111705439,None,4215,-2,-2,0,0,2,-2,-4,-5,1756999025439396619,14.75413990020752
0,4.659041405,20250904111705439,None,4215,0,-2,-1,-1,1,-1,2,0,1756999025439556121,14.75413990020752
0,4.674014091,20250904111705454,None,4213,-3,1,-2,-1,0,-2,-1,-3,1756999025454479932,13.088349342346191
0,4.674123526,20250904111705454,None,4213,0,-1,1,0,-2,1,0,0,1756999025454626798,13.088349342346191
0,4.681204557,20250904111705461,None,4212,-4,-3,-2,-1,-2,0,-1,-3,1756999025461732864,9.04286003112793
0,4.681288242,20250904111705462,None,4212,-2,-1,-1,-2,-2,-1,2,0,1756999025461863994,9.04286003112793
0,4.688670874,20250904111705469,None,4211,0,1,1,-1,0,-2,0,1,1756999025469174861,9.04286003112793
0,4.688737154,20250904111705469,None,4211,-1,0,-2,-1,-1,1,1,3,1756999025469250202,9.04286003112793
0,4.703734159,20250904111705484,None,4209,-1,0,-3,1,0,0,0,0,1756999025484205722,11.898499488830566
0,4.703854084,20250904111705484,None,4209,-1,0,-1,-1,-1,-2,1,-1,1756999025484343290,11.898499488830566
0,4.711209535,20250904111705491,None,4208,-4,0,-1,-1,-1,-3,-3,-5,1756999025491710186,7.615039825439453
0,4.711319208,20250904111705492,None,4208,-2,-3,-2,-1,-2,-3,-2,-1,1756999025491829395,7.615039825439453
0,4.718852997,20250904111705499,None,4207,-2,1,-1,2,-1,-1,3,0,1756999025499191284,14.278200149536133
0,4.7190542220000005,20250904111705499,None,4207,-1,-4,-2,1,-2,-2,-1,-3,1756999025499382257,14.278200149536133
0,4.733730554,20250904111705514,None,4206,0,-1,-3,-4,0,-1,-2,-3,1756999025514203071,6.187219619750977
0,4.733833074,20250904111705514,None,4206,-1,-1,0,0,1,-4,-2,2,1756999025514341115,6.187219619750977
0,4.741299152,20250904111705522,None,4205,-2,-1,0,-1,-1,2,2,1,1756999025521769762,14.040229797363281
0,4.741431713,20250904111705522,None,4205,-2,0,-3,0,2,-3,0,0,1756999025521915435,14.040229797363281
0,4.756346941,20250904111705537,None,4203,2,-1,1,-2,2,0,-1,-1,1756999025536762475,11.660530090332031
0,4.756513119,20250904111705537,None,4203,-1,-1,-1,-2,-2,-2,0,0,1756999025536892652,11.660530090332031
0,4.76379919,20250904111705544,None,4203,0,-2,-1,2,-2,0,-1,-1,1756999025544198036,11.660530090332031
0,4.764042139,20250904111705544,None,4202,1,-2,-2,1,0,0,2,0,1756999025544339418,11.660530090332031
0,4.7711677550000005,20250904111705551,None,4202,0,-3,-1,0,3,0,0,-1,1756999025551674842,10.946619987487793
0,4.771254778,20250904111705551,None,4202,-2,-2,0,0,-3,-1,-3,-3,1756999025551789045,10.946619987487793
0,4.778705358,20250904111705559,None,4201,-2,-4,4,-1,-1,-1,-4,0,1756999025559169054,8.566919326782227
0,4.778833151,20250904111705559,None,4201,0,1,1,0,0,-4,-2,2,1756999025559287548,8.566919326782227
0,4.793808222,20250904111705574,None,4198,-2,-1,0,-3,0,-2,-2,-1,1756999025574250459,6.187219619750977
0,4.793962479,20250904111705574,None,4198,-1,0,-2,-2,0,0,-2,-2,1756999025574405431,6.187219619750977
0,4.80126071,20250904111705581,None,4197,-1,0,-2,-4,-1,0,-1,-1,1756999025581758260,6.187219619750977
0,4.801390648,20250904111705582,None,4197,3,-3,-7,0,-2,-2,-1,1,1756999025581872701,6.187219619750977
0,4.816289902,20250904111705597,None,4196,2,0,-2,0,0,0,0,0,1756999025596734762,5.949249744415283
0,4.81646204,20250904111705597,None,4196,-4,-1,0,-4,2,-3,0,0,1756999025596867799,5.949249744415283
0,4.823744774,20250904111705604,None,4195,-3,1,0,2,1,0,-1,-1,1756999025604198217,14.040229797363281
0,4.823898554,20250904111705604,None,4195,-1,2,0,-1,-2,-1,-1,-1,1756999025604349136,14.040229797363281
0,4.83128047,20250904111705612,None,4194,-3,0,-2,0,-3,-1,0,-3,1756999025611741781,8.09097957611084
0,4.831473827,20250904111705612,None,4194,-7,-4,-1,0,-1,-1,0,-1,1756999025611882448,8.09097957611084
0,4.838715553,20250904111705619,None,4193,-2,-1,-2,-3,-1,-1,2,0,1756999025619165658,8.09097957611084
0,4.838849783,20250904111705619,None,4193,2,1,-2,-3,3,0,-1,2,1756999025619283914,8.09097957611084
0,4.854336023,20250904111705635,None,4192,-1,-1,0,-1,-1,-1,-1,1,1756999025634614706,10.232709884643555
0,4.854556084,20250904111705635,None,4192,-1,1,0,-4,-1,1,-2,-4,1756999025634804725,10.232709884643555
0,4.861684561,20250904111705642,None,4191,-1,-3,-3,-1,-2,2,-1,0,1756999025641918659,9.280829429626465
0,4.861890554,20250904111705642,None,4191,-1,1,-1,-1,-1,0,-1,0,1756999025642106056,9.280829429626465
0,4.876419783,20250904111705657,None,4188,2,-2,2,-2,0,-1,1,-4,1756999025656731605,6.425189971923828
0,4.876678944,20250904111705657,None,4188,1,-4,-3,0,-2,-1,-1,1,1756999025656858205,6.425189971923828
0,4.884006977,20250904111705664,None,4188,-3,0,-1,1,0,-1,-1,-4,1756999025664157152,6.425189971923828
0,4.8842659,20250904111705664,None,4188,2,-3,1,-2,0,-2,0,-1,1756999025664253950,6.425189971923828
0,4.891341925,20250904111705672,None,4187,-2,0,1,-2,-2,2,0,-2,1756999025671675682,14.040229797363281
0,4.891508818,20250904111705672,None,4187,-1,-3,-3,-3,-4,-1,-3,-1,1756999025671788215,14.040229797363281
0,4.898704052,20250904111705679,None,4186,0,-1,-1,-1,4,-2,2,0,1756999025679082155,5.949249744415283
0,4.898840904,20250904111705679,None,4186,0,-2,-3,0,2,-4,0,-2,1756999025679175138,5.949249744415283
0,4.913920879,20250904111705694,None,4184,0,1,0,0,1,-3,-2,-4,1756999025694183349,6.901129722595215
0,4.914098024,20250904111705694,None,4184,2,-2,-1,1,-1,-3,0,1,1756999025694257259,6.901129722595215
0,4.921253919,20250904111705701,None,4183,1,-2,-1,-3,1,1,-1,0,1756999025701658010,6.901129722595215
0,4.921417475,20250904111705702,None,4183,0,0,-2,0,1,-1,0,0,1756999025701766729,6.901129722595215
0,4.936626673,20250904111705717,None,4182,-1,4,-2,-2,-3,0,0,-1,1756999025716772556,9.518799781799316
0,4.936798096,20250904111705717,None,4182,1,4,1,-3,-2,0,-2,1,1756999025716926813,9.518799781799316
0,4.9440147880000005,20250904111705724,None,4181,-3,2,-2,-2,0,-1,-1,-1,1756999025724180459,9.518799781799316
0,4.9441998,20250904111705724,None,4181,0,0,-1,0,-2,3,2,-3,1756999025724348306,9.518799781799316
0,4.95154953,20250904111705732,None,4179,0,-1,-1,-1,-2,1,-1,-1,1756999025731721162,12.850379943847656
0,4.951751947,20250904111705732,None,4179,2,0,2,2,-1,0,0,0,1756999025731856584,12.850379943847656
0,4.958884954,20250904111705739,None,4178,-2,-3,-1,1,-1,-1,-3,0,1756999025739114046,12.850379943847656
0,4.959074259,20250904111705739,None,4178,1,-1,-3,0,1,1,1,0,1756999025739240884,12.850379943847656
0,4.973953485,20250904111705754,None,4177,-2,-2,-1,0,0,0,-3,-1,1756999025754196643,14.75413990020752
0,4.974140167,20250904111705754,None,4177,-1,-1,1,1,-1,-1,2,-2,1756999025754331588,14.75413990020752
0,4.981458425,20250904111705762,None,4176,0,-1,-1,-2,-3,-5,-1,-3,1756999025761694192,6.187219619750977
0,4.981692076,20250904111705762,None,4176,-1,-1,1,1,1,-1,-2,-2,1756999025761811971,6.187219619750977
0,4.99691391,20250904111705777,None,4174,-4,-4,-1,-3,1,-2,-3,-1,1756999025777137517,6.901129722595215
0,4.9971184730000004,20250904111705777,None,4174,0,-3,-3,0,-2,-2,-1,-2,1756999025777322053,6.901129722595215
0,5.003877878,20250904111705784,None,4173,-1,-2,0,2,-3,0,-2,-1,1756999025784125328,6.901129722595215
0,5.004127264,20250904111705784,None,4173,-2,-3,0,-3,0,-3,1,-5,1756999025784245729,12.612409591674805
0,5.011446953,20250904111705792,None,4173,1,0,-3,-2,1,-4,0,-1,1756999025791692495,12.612409591674805
0,5.011716604,20250904111705792,None,4172,-2,0,-2,0,6,1,1,-2,1756999025791811466,12.612409591674805
0,5.034673929,20250904111705815,None,4169,-2,-4,-2,-3,-1,-1,-2,0,1756999025814839601,12.612409591674805
0,5.034856081,20250904111705815,None,4169,-4,-1,-4,-1,-3,0,-1,1,1756999025814986944,12.612409591674805
0,5.035369158,20250904111705816,None,4169,-1,0,-1,-1,0,-1,0,-1,1756999025815667390,12.612409591674805
0,5.035585403,20250904111705816,None,4169,-1,-1,2,-3,0,0,2,-3,1756999025815771341,12.612409591674805
0,5.04164648,20250904111705822,None,4168,0,-3,0,-2,-3,-2,0,-1,1756999025821810245,12.612409591674805
0,5.041853189,20250904111705822,None,4168,2,3,2,-2,-2,-1,1,-1,1756999025821977615,12.612409591674805
0,5.056560516,20250904111705837,None,4167,0,-2,1,2,1,1,1,-1,1756999025836724042,14.516169548034668
0,5.056755304,20250904111705837,None,4167,1,-2,2,-3,-2,-3,0,1,1756999025836860656,14.516169548034668
0,5.063999414,20250904111705844,None,4166,1,0,0,-1,-5,0,2,3,1756999025844157457,5.949249744415283
0,5.064212561,20250904111705844,None,4166,-2,1,-2,-2,3,1,-4,1,1756999025844252109,5.949249744415283
0,5.071419954,20250904111705852,None,4165,-1,4,0,-1,2,2,-3,1,1756999025851669073,14.75413990020752
0,5.0716385840000004,20250904111705852,None,4165,0,0,0,-1,-2,-2,0,-3,1756999025851785898,14.75413990020752
0,5.08647871,20250904111705867,None,4163,-3,-1,1,0,-2,-3,-1,-4,1756999025866706848,6.425189971923828
0,5.086708546,20250904111705867,None,4163,3,0,1,0,0,-2,1,2,1756999025866830825,6.425189971923828
0,5.093855858,20250904111705874,None,4163,-3,0,0,-2,1,2,-1,-1,1756999025874126911,13.80225944519043
0,5.094026804,20250904111705874,None,4163,0,-1,-1,-1,2,1,0,-5,1756999025874249219,13.80225944519043
0,5.101458549,20250904111705882,None,4162,0,0,-1,-4,-1,-1,-2,-1,1756999025881675243,9.04286003112793
0,5.101678848,20250904111705882,None,4162,-1,2,-1,-2,-1,-3,0,0,1756999025881855010,9.04286003112793
0,5.116363048,20250904111705897,None,4160,-1,-2,-1,0,-2,3,3,0,1756999025896600484,10.946619987487793
0,5.116583586,20250904111705897,None,4160,1,-2,-3,1,-3,-2,-2,0,1756999025896721839,10.946619987487793
0,5.123926401,20250904111705904,None,4158,-5,-2,-1,1,2,1,-1,1,1756999025904157876,10.946619987487793
0,5.124120235,20250904111705904,None,4158,-2,-1,-3,-3,0,-1,1,-5,1756999025904254674,10.946619987487793
0,5.131398201,20250904111705912,None,4158,0,0,-1,-1,-3,-1,-3,-3,1756999025911645174,7.8530097007751465
0,5.131619692,20250904111705912,None,4158,1,1,-1,-2,-4,0,2,0,1756999025911755084,7.8530097007751465
0,5.146492243,20250904111705927,None,4156,0,1,0,-1,0,0,1,3,1756999025926699161,5.949249744415283
0,5.146735668,20250904111705927,None,4156,-2,-1,-3,0,0,-2,-2,-5,1756999025926821708,5.949249744415283
0,5.153885126,20250904111705934,None,4155,-2,1,-2,-2,0,1,-1,-4,1756999025934126853,14.75413990020752
0,5.154070616,20250904111705934,None,4155,1,-1,-1,-3,2,1,2,-1,1756999025934255599,14.75413990020752
0,5.161331415,20250904111705942,None,4154,-4,-1,0,-2,0,1,-3,0,1756999025941628694,14.75413990020752
0,5.161550283,20250904111705942,None,4154,2,1,1,-2,-3,0,-1,2,1756999025941728353,14.75413990020752
0,5.176447391,20250904111705957,None,4153,-2,2,0,1,-5,0,1,-1,1756999025956675767,14.278200149536133
0,5.176662683,20250904111705957,None,4153,0,1,-1,1,-1,-2,2,-3,1756999025956786632,14.278200149536133
0,5.183898449,20250904111705964,None,4152,0,-1,-1,1,-2,-2,-3,0,1756999025964143037,8.328949928283691
0,5.184082985,20250904111705964,None,4152,0,0,-3,2,1,-1,-1,-1,1756999025964251756,8.328949928283691
0,5.191412926,20250904111705972,None,4151,1,-3,-3,1,0,-2,-2,0,1756999025971650600,11.898499488830566
0,5.191625833,20250904111705972,None,4151,0,-2,-1,1,-2,0,2,-1,1756999025971780776,11.898499488830566
0,5.206658363,20250904111705987,None,4150,-3,-2,2,-1,0,-2,-4,-1,1756999025986792564,11.184589385986328
0,5.2068595890000005,20250904111705987,None,4150,-2,2,0,1,-2,-1,1,2,1756999025986993312,11.184589385986328
0,5.213893652,20250904111705994,None,4149,0,0,-1,-3,-1,2,0,-1,1756999025994145870,8.328949928283691
0,5.214079142,20250904111705994,None,4149,1,-2,1,1,-2,1,-1,-2,1756999025994293928,8.328949928283691
0,5.221634149,20250904111706002,None,4147,-3,2,-2,-3,-1,-2,-2,-2,1756999026001738786,14.040229797363281
0,5.221866846,20250904111706002,None,4147,-1,1,-2,1,-5,2,1,1,1756999026001941204,14.040229797363281
0,5.236325025,20250904111706017,None,4145,-1,-3,1,0,1,1,0,0,1756999026016685962,14.75413990020752
0,5.23651123,20250904111706017,None,4145,-4,-3,-2,1,-2,-2,-4,0,1756999026016838550,14.75413990020752
0,5.243769169,20250904111706024,None,4144,0,1,-1,-1,-2,-2,-2,0,1756999026024138450,14.75413990020752
0,5.243893862,20250904111706024,None,4144,-1,1,-2,-1,-4,-1,0,0,1756999026024258613,14.75413990020752
0,5.251194477,20250904111706031,None,4144,1,-1,-1,0,0,2,1,-1,1756999026031662225,5.949249744415283
0,5.25137496,20250904111706032,None,4144,-1,-4,-2,-3,1,-1,-1,-2,1756999026031784534,5.949249744415283
0,5.266216278,20250904111706046,None,4142,-1,0,0,0,-6,-1,-1,-1,1756999026046664714,7.8530097007751465
0,5.266392231,20250904111706047,None,4142,-1,2,0,-2,-2,0,-4,-2,1756999026046790122,7.8530097007751465
0,5.273767471,20250904111706054,None,4141,-2,2,-4,-2,0,1,1,0,1756999026054180145,11.42255973815918
0,5.273911476,20250904111706054,None,4141,1,-1,2,3,0,-4,-3,-4,1756999026054344415,11.42255973815918
0,5.281157017,20250904111706061,None,4140,-4,-1,-5,0,-2,-4,-2,-1,1756999026061609029,11.42255973815918
0,5.281250238,20250904111706061,None,4140,-3,-1,-1,2,0,-1,0,-2,1756999026061747789,11.42255973815918
0,5.296203613,20250904111706076,None,4139,0,-3,-1,-1,0,0,-1,0,1756999026076666831,8.566919326782227
0,5.296317339,20250904111706077,None,4139,1,0,-3,-2,-3,0,-3,1,1756999026076846599,8.566919326782227
0,5.303766727,20250904111706084,None,4137,0,-1,1,-1,-4,-1,3,0,1756999026084153890,13.326319694519043
0,5.303868532,20250904111706084,None,4137,2,-3,-2,-3,-1,-3,0,-2,1756999026084270238,13.326319694519043
0,5.311382055,20250904111706092,None,4136,-1,0,-3,-3,-1,-1,2,-3,1756999026091891288,6.187219619750977
0,5.311472893,20250904111706092,None,4136,-1,-2,-1,-2,-3,-1,-2,4,1756999026092034339,6.187219619750977
0,5.326160431,20250904111706106,None,4135,2,1,-1,2,-2,0,-3,-1,1756999026106664657,14.75413990020752
0,5.326248646,20250904111706106,None,4135,-2,1,-2,-1,3,0,-1,-1,1756999026106793642,14.75413990020752
0,5.33363533,20250904111706114,None,4134,1,-1,1,-2,-1,-2,-2,-1,1756999026114109039,5.949249744415283
0,5.333723783,20250904111706114,None,4134,-2,0,2,-7,1,-2,1,-2,1756999026114262580,5.949249744415283
0,5.34114337,20250904111706121,None,4133,1,-1,-2,2,-1,0,1,-1,1756999026121688842,14.516169548034668
0,5.341233492,20250904111706121,None,4133,-1,1,0,1,-1,-2,-2,-2,1756999026121821165,14.516169548034668
0,5.356318235,20250904111706137,None,4131,-3,-1,0,-3,-1,2,0,-4,1756999026136792659,7.8530097007751465
0,5.356460094,20250904111706137,None,4131,-4,-4,-3,-3,-1,-1,-1,-3,1756999026136970996,12.374439239501953
0,5.363647222,20250904111706144,None,4131,0,0,0,0,1,-2,-2,-1,1756999026144105195,12.374439239501953
0,5.363753319,20250904111706144,None,4131,-3,-1,1,-3,-3,-2,0,-2,1756999026144265174,12.374439239501953
0,5.371268988,20250904111706151,None,4130,-3,3,0,-2,-1,-3,0,-1,1756999026151738166,10.232709884643555
0,5.371616125,20250904111706152,None,4130,-2,1,-3,1,1,2,2,0,1756999026151877164,10.232709884643555
0,5.386331558,20250904111706167,None,4127,-1,-1,1,1,-1,-1,-2,3,1756999026166716337,13.088349342346191
0,5.386512279,20250904111706167,None,4127,-1,-3,-3,-4,1,-3,-2,-1,1756999026166916847,13.088349342346191
0,5.393674374,20250904111706174,None,4126,-3,-2,-1,0,-2,3,0,0,1756999026174150466,6.6631598472595215
0,5.393816233,20250904111706174,None,4126,-3,-1,-2,-5,-2,-1,3,-2,1756999026174255132,6.6631598472595215
0,5.40122652,20250904111706181,None,4125,0,-1,-4,0,-1,0,-2,-1,1756999026181673526,6.6631598472595215
0,5.401406765,20250904111706182,None,4125,3,-1,-2,0,0,0,1,-3,1756999026181826829,6.6631598472595215
0,5.4161872859999995,20250904111706196,None,4124,1,1,-3,0,-1,0,1,-2,1756999026196597337,5.949249744415283
0,5.416305303,20250904111706197,None,4124,0,-1,-2,-2,-3,0,-2,-1,1756999026196705341,5.949249744415283
0,5.423579454,20250904111706204,None,4123,-1,0,-2,0,-1,2,-3,0,1756999026204059123,14.516169548034668
0,5.423695803,20250904111706204,None,4123,-3,1,2,-1,0,2,1,1,1756999026204173803,14.516169548034668
0,5.431463003,20250904111706212,None,4122,0,1,0,-2,1,1,-2,-2,1756999026211619138,7.139100074768066
0,5.431692123,20250904111706212,None,4122,-4,1,-2,-1,0,-3,-1,3,1756999026211734294,7.139100074768066
0,5.446596622,20250904111706227,None,4120,-1,-1,0,1,-1,1,-4,-3,1756999026226732492,12.612409591674805
0,5.446841717,20250904111706227,None,4120,-1,-2,-2,-3,-3,1,2,2,1756999026226940155,12.612409591674805
0,5.453752518,20250904111706234,None,4120,2,-1,-2,0,-1,0,1,1,1756999026234060287,9.280829429626465
0,5.453926563,20250904111706234,None,4120,0,-2,-4,-4,-3,0,0,0,1756999026234199762,9.280829429626465
0,5.461126566,20250904111706241,None,4119,-5,-2,-2,-4,-4,-3,-2,-3,1756999026241573333,9.994739532470703
0,5.461271763,20250904111706241,None,4119,0,-1,-2,0,-2,0,-2,-1,1756999026241666555,9.994739532470703
0,5.47639513,20250904111706257,None,4116,-2,-3,-1,1,-1,-2,-1,1,1756999026256708621,12.612409591674805
0,5.476693153,20250904111706257,None,4116,-4,2,-2,-4,-1,0,-1,-3,1756999026256859540,7.139100074768066
0,5.483580351,20250904111706264,None,4115,0,-2,-2,-3,0,-3,-1,-3,1756999026264074563,7.139100074768066
0,5.483694553,20250904111706264,None,4115,1,4,0,3,1,2,0,-1,1756999026264195919,7.139100074768066
0,5.491140604,20250904111706271,None,4115,-1,-5,0,-3,-2,2,-4,0,1756999026271623611,14.516169548034668
0,5.491253614,20250904111706271,None,4115,-2,-1,-1,-5,1,-3,-3,2,1756999026271745204,14.516169548034668
0,5.506242514,20250904111706286,None,4113,0,-2,0,0,-3,-2,-2,-1,1756999026286728382,14.75413990020752
0,5.506358623,20250904111706287,None,4113,-1,6,-1,1,-3,-1,-1,-1,1756999026286897182,14.75413990020752
0,5.513632536,20250904111706294,None,4112,1,-3,2,4,-1,-1,0,-1,1756999026294102430,6.425189971923828
0,5.513736486,20250904111706294,None,4112,-2,-2,-4,-3,1,0,-1,-2,1756999026294245481,6.425189971923828
0,5.521093845,20250904111706301,None,4111,-1,-3,0,-1,-1,2,-3,-2,1756999026301612854,12.850379943847656
0,5.521205902,20250904111706301,None,4111,4,1,0,-1,0,-2,-3,1,1756999026301724195,12.850379943847656
0,5.536187649,20250904111706316,None,4110,-1,1,-2,0,0,1,0,-1,1756999026316652774,9.280829429626465
0,5.536308527,20250904111706317,None,4110,1,0,-1,1,1,1,0,-1,1756999026316785097,9.280829429626465
0,5.543834925,20250904111706324,None,4109,1,-3,-1,-1,-1,-1,-3,-3,1756999026324184656,10.470680236816406
0,5.544028282,20250904111706324,None,4109,-2,-2,1,0,0,-2,1,-1,1756999026324363470,10.470680236816406
0,5.551273346,20250904111706332,None,4107,-1,-3,-2,-1,0,-3,-1,-3,1756999026331659078,12.136469841003418
0,5.5513978,20250904111706332,None,4107,2,-1,0,-3,-2,0,2,-4,1756999026331815004,12.136469841003418
0,5.566396236,20250904111706347,None,4105,-2,1,-2,2,0,0,-1,-3,1756999026346674919,7.615039825439453
0,5.566572666,20250904111706347,None,4105,-3,1,-3,-1,1,-2,-1,0,1756999026347062349,7.615039825439453
0,5.573951006,20250904111706354,None,4105,-4,-1,0,1,0,0,1,-2,1756999026354135513,14.278200149536133
0,5.574151993,20250904111706354,None,4105,-1,0,-1,-5,1,0,0,0,1756999026354286670,14.278200149536133
0,5.581310987,20250904111706362,None,4104,-1,1,-1,-1,0,-3,-1,-1,1756999026361678361,5.949249744415283
0,5.581497908,20250904111706362,None,4104,-2,-3,0,-1,-1,1,0,-2,1756999026361817598,5.949249744415283
0,5.596331596,20250904111706377,None,4102,-2,2,-1,-1,-2,1,0,0,1756999026376678228,6.187219619750977
0,5.596556902,20250904111706377,None,4102,1,1,-2,-3,0,0,0,0,1756999026376852035,6.187219619750977
0,5.60396719,20250904111706384,None,4101,0,2,0,4,-1,-4,0,-1,1756999026384290218,6.187219619750977
0,5.604125261,20250904111706384,None,4101,-3,-2,0,-6,-3,4,2,-1,1756999026384567975,6.187219619750977
0,5.611191034,20250904111706391,None,4101,-1,-2,-2,-1,-1,0,-1,-3,1756999026391660213,13.326319694519043
0,5.611323833,20250904111706392,None,4101,-1,-2,0,2,0,1,-1,1,1756999026391790390,13.326319694519043
0,5.62620163,20250904111706406,None,4099,2,-2,0,-2,0,-1,1,-1,1756999026406634569,10.946619987487793
0,5.626354933,20250904111706407,None,4099,-2,-1,1,-2,-1,-1,2,0,1756999026406797170,10.946619987487793
0,5.633720159,20250904111706414,None,4097,0,-2,-2,-2,-2,-1,0,-1,1756999026414140462,11.42255973815918
0,5.63386178,20250904111706414,None,4097,-2,-4,0,0,0,-1,-3,1,1756999026414292573,11.42255973815918
0,5.641186476,20250904111706421,None,4097,-4,-4,1,-1,-1,-1,-1,-2,1756999026421620845,11.42255973815918
0,5.641392469,20250904111706422,None,4097,-1,-1,-2,0,0,-1,1,2,1756999026421746492,8.566919326782227
0,5.656196117,20250904111706436,None,4095,-1,-1,0,-3,-1,-1,1,-3,1756999026436641931,13.326319694519043
0,5.656374693,20250904111706437,None,4095,-2,-3,0,-1,0,0,-1,-1,1756999026436791658,13.326319694519043
0,5.663652658,20250904111706444,None,4094,-1,0,-2,-1,-1,0,0,0,1756999026444064855,6.187219619750977
0,5.663812637,20250904111706444,None,4094,-1,0,0,-1,0,-1,-1,0,1756999026444209337,6.187219619750977
0,5.671205282,20250904111706451,None,4093,0,2,2,0,0,-1,-2,0,1756999026451627731,14.75413990020752
0,5.671339989,20250904111706452,None,4093,-4,1,1,-1,-2,2,-2,-1,1756999026451754331,14.75413990020752
0,5.686355352,20250904111706467,None,4092,-3,0,1,-5,2,-2,1,1,1756999026466688156,5.949249744415283
0,5.686713457,20250904111706467,None,4092,-2,-3,-2,-1,-3,-3,-1,-1,1756999026466861248,5.949249744415283
0,5.69374609,20250904111706474,None,4091,0,-1,-1,2,2,-2,2,0,1756999026474080801,13.564290046691895
0,5.693966865,20250904111706474,None,4091,2,0,2,1,0,-3,-2,3,1756999026474238872,13.564290046691895
0,5.701218128,20250904111706481,None,4090,-4,-1,-3,-1,-1,0,-1,-3,1756999026481627464,8.328949928283691
0,5.701355934,20250904111706482,None,4090,-2,-3,-1,-1,-2,0,1,-2,1756999026481765270,8.328949928283691
0,5.716307878,20250904111706497,None,4088,0,-3,-2,-1,-1,0,0,1,1756999026496657133,10.708649635314941
0,5.71650219,20250904111706497,None,4088,-1,4,-1,-2,-1,0,0,2,1756999026496814250,10.708649635314941
0,5.7236571309999995,20250904111706504,None,4088,-3,2,0,-1,-1,-3,-2,0,1756999026504084587,10.708649635314941
0,5.723813295,20250904111706504,None,4088,-2,-3,-2,1,2,0,-2,0,1756999026504267930,10.708649635314941
0,5.731093645,20250904111706511,None,4087,1,-3,-3,0,-1,-4,-1,0,1756999026511561393,8.328949928283691
0,5.731232166,20250904111706511,None,4087,-1,-3,0,0,-4,1,-3,-1,1756999026511700153,8.328949928283691
0,5.746288776,20250904111706527,None,4084,0,-2,-1,-2,1,-1,1,1,1756999026526671648,6.6631598472595215
0,5.746458292,20250904111706527,None,4084,-1,1,-1,-2,-1,0,-3,-1,1756999026526858091,6.6631598472595215
0,5.753792047,20250904111706534,None,4083,1,-1,-5,1,-1,0,-1,-1,1756999026534215927,14.75413990020752
0,5.753957271,20250904111706534,None,4083,1,0,0,-1,-3,-1,-1,-3,1756999026534378051,14.75413990020752
0,5.761215687,20250904111706541,None,4082,-1,0,-3,0,2,-2,-2,-3,1756999026541644334,14.75413990020752
0,5.761376619,20250904111706542,None,4082,1,-2,-1,-2,1,1,1,0,1756999026541791677,14.75413990020752
0,5.776080131,20250904111706556,None,4081,1,-2,-1,-2,-2,-2,-2,-1,1756999026556530475,14.278200149536133
0,5.776234627,20250904111706556,None,4081,-1,0,0,-1,-1,2,2,1,1756999026556645393,14.278200149536133
0,5.783493996,20250904111706564,None,4080,-4,0,-3,0,0,-1,-3,2,1756999026563986778,7.615039825439453
0,5.783652544,20250904111706564,None,4080,-1,0,-2,-2,0,0,-1,-1,1756999026564111471,7.615039825439453
0,5.791142464,20250904111706571,None,4079,-4,-4,2,0,-3,1,-3,-2,1756999026571626901,12.136469841003418
0,5.791272879,20250904111706571,None,4079,2,-3,-2,0,1,-4,-3,-4,1756999026571765899,12.136469841003418
0,5.806393623,20250904111706587,None,4077,-6,0,-1,-1,-1,0,1,0,1756999026586637496,9.756770133972168
0,5.8066015239999995,20250904111706587,None,4077,1,-2,-1,-2,0,-1,0,-1,1756999026586750030,9.756770133972168
0,5.813517809,20250904111706594,None,4077,2,0,-1,1,-2,-5,1,1,1756999026594028234,9.04286003112793
0,5.813627243,20250904111706594,None,4077,0,3,0,-3,3,-1,-2,1,1756999026594141960,9.04286003112793
0,5.82108283,20250904111706601,None,4075,-3,-2,0,1,-4,0,-3,-1,1756999026601619243,13.326319694519043
0,5.821174383,20250904111706601,None,4075,0,-1,-1,2,-4,1,-2,-3,1756999026601738452,13.326319694519043
0,5.836222887,20250904111706616,None,4073,0,-3,-2,0,2,-2,-2,-6,1756999026616610050,6.6631598472595215
0,5.836449385,20250904111706617,None,4073,-2,4,2,1,3,3,-2,1,1756999026616761445,14.992109298706055
0,5.843621731,20250904111706624,None,4072,1,-1,-4,-1,0,-1,-1,1,1756999026624042749,14.992109298706055
0,5.843775749,20250904111706624,None,4072,0,2,-3,-3,-2,-1,0,0,1756999026624189853,14.992109298706055
0,5.85114789,20250904111706631,None,4071,-1,-1,-2,-1,0,0,-3,1,1756999026631593465,5.71127986907959
0,5.851287365,20250904111706632,None,4071,-3,0,0,-2,-2,0,0,-3,1756999026631742238,5.71127986907959
0,5.86615181,20250904111706646,None,4070,0,3,-1,-2,0,0,-1,1,1756999026646575450,7.139100074768066
0,5.866279364,20250904111706646,None,4070,-1,-1,-1,0,3,4,0,-1,1756999026646712303,7.139100074768066
0,5.8738019470000005,20250904111706654,None,4069,0,-1,-1,1,-4,0,0,1,1756999026654113531,12.374439239501953
0,5.87405014,20250904111706654,None,4069,1,1,0,1,-1,0,-1,0,1756999026654284954,12.374439239501953
0,5.881251573,20250904111706661,None,4068,-4,-1,-1,-1,2,-3,0,1,1756999026661629676,9.756770133972168
0,5.881430864,20250904111706662,None,4068,-1,-2,-5,-1,-1,-3,-3,-1,1756999026661782026,9.756770133972168
0,5.8963320249999995,20250904111706677,None,4067,-1,0,3,1,-3,3,1,-1,1756999026676747083,9.994739532470703
0,5.896502733,20250904111706677,None,4067,1,0,-1,-2,1,-2,-3,-1,1756999026676908016,9.994739532470703
0,5.903817654,20250904111706684,None,4065,-1,0,0,-4,-2,1,0,0,1756999026684135198,12.612409591674805
0,5.904091596,20250904111706684,None,4065,-1,-4,-3,3,-4,0,2,3,1756999026684265375,12.612409591674805
0,5.911123752,20250904111706691,None,4064,0,0,-4,3,-1,-1,2,-2,1756999026691566228,6.6631598472595215
0,5.911279201,20250904111706692,None,4064,1,-2,1,-3,-1,-1,-1,-2,1756999026691696643,6.6631598472595215
0,5.926172495,20250904111706706,None,4062,-2,1,-1,3,3,1,0,0,1756999026706638813,14.516169548034668
0,5.926301479,20250904111706707,None,4062,-1,0,-1,-1,1,-2,-2,-2,1756999026706788063,14.516169548034668
0,5.9335772989999995,20250904111706714,None,4062,-2,-1,2,0,-1,0,2,-1,1756999026714070320,5.949249744415283
0,5.933686256,20250904111706714,None,4062,1,-3,-3,-2,-1,0,-1,0,1756999026714203834,5.949249744415283
0,5.94859314,20250904111706729,None,4060,-2,-1,-1,1,-2,-3,0,-2,1756999026729018211,6.6631598472595215
0,5.948768854,20250904111706729,None,4060,-1,-3,0,2,-4,3,0,-1,1756999026729165077,6.6631598472595215
0,5.956138134,20250904111706736,None,4059,-2,0,-1,-4,-2,-2,0,1,1756999026736593008,12.850379943847656
