gt,time_elapsed,current_time,current_task,motor_position,futek,emg0,emg1,emg2,emg3,emg4,emg5,emg6,emg7,emg_timer_stamp
0,0.03510952,20250904111303357,None,31209,13.80225944519043,-1,-1,-4,2,-1,-1,-1,-2,1756998783354614257
0,0.035303116,20250904111303358,None,31209,13.80225944519043,-2,-2,-2,0,-2,-2,-1,2,1756998783354734182
0,0.039610624,20250904111303362,None,31209,5.235340118408203,-1,1,1,0,-3,0,1,-1,1756998783362140178
0,0.039741993,20250904111303362,None,31209,5.235340118408203,3,0,-4,-1,-1,1,2,-1,1756998783362254858
0,0.05472517,20250904111303377,None,31209,6.425189971923828,-1,-1,1,0,-2,1,-2,-2,1756998783377124309
0,0.054848671,20250904111303377,None,31209,6.425189971923828,-4,-1,-2,1,-1,-3,-1,-2,1756998783377243041
0,0.061986923,20250904111303384,None,31209,11.42255973815918,-2,-3,-4,0,-1,-1,0,0,1756998783384588003
0,0.062145471,20250904111303385,None,31209,11.42255973815918,0,0,-5,-6,-32,-9,-3,-3,1756998783384712934
0,0.069524527,20250904111303392,None,31209,11.42255973815918,-3,-2,0,3,27,1,-7,-2,1756998783392104864
0,0.069643259,20250904111303392,None,31209,11.42255973815918,0,1,1,1,0,6,9,1,1756998783392242908
0,0.084653854,20250904111303407,None,31209,9.04286003112793,0,-1,-1,-1,-7,-1,3,-1,1756998783407142400
0,0.084712505,20250904111303407,None,31209,9.04286003112793,1,0,-2,1,-3,-2,-2,-1,1756998783407301664
0,0.09192872,20250904111303414,None,31209,11.898499488830566,-1,-1,-2,-5,-4,-3,1,-1,1756998783414598464
0,0.092014313,20250904111303414,None,31209,11.898499488830566,-3,-5,0,-3,2,0,0,0,1756998783414718389
0,0.099447489,20250904111303422,None,31209,6.187219619750977,-3,-2,-5,2,0,-1,0,-3,1756998783422118186
0,0.099516869,20250904111303422,None,31209,6.187219619750977,-3,-1,-3,-1,1,-1,0,-3,1756998783422219276
0,0.114649773,20250904111303437,None,31209,14.040229797363281,1,-2,0,-1,0,1,-2,1,1756998783437188863
0,0.114784956,20250904111303437,None,31209,14.040229797363281,-2,1,0,3,1,0,-4,-1,1756998783437370777
0,0.122103214,20250904111303444,None,31209,5.235340118408203,2,1,0,-2,-2,-2,-3,-3,1756998783444674730
0,0.122262239,20250904111303445,None,31209,5.235340118408203,-1,-1,-1,-1,-3,-1,1,0,1756998783444813966
0,0.129590034,20250904111303452,None,31209,13.80225944519043,-1,-2,0,-3,-3,-1,-1,0,1756998783452173471
0,0.129707813,20250904111303452,None,31209,13.80225944519043,-1,-3,2,-3,-1,0,1,-2,1756998783452322006
0,0.144628286,20250904111303467,None,31209,12.136469841003418,0,-2,0,0,-1,-3,-1,1,1756998783467243194
0,0.144745827,20250904111303467,None,31209,12.136469841003418,1,1,-2,0,0,2,-4,-2,1756998783467419385
0,0.152084112,20250904111303474,None,31209,12.136469841003418,1,-2,-3,0,-6,-3,0,0,1756998783474698543
0,0.152198553,20250904111303475,None,31209,12.136469841003418,-1,0,-1,-1,1,-1,-3,-1,1756998783474865674
0,0.159793854,20250904111303482,None,31209,9.04286003112793,-3,1,-4,-5,0,3,5,-1,1756998783482384920
0,0.159906864,20250904111303482,None,31209,9.04286003112793,0,0,-2,-1,-2,2,1,4,1756998783482587099
0,0.174477339,20250904111303497,None,31209,11.660530090332031,-3,-2,-1,0,-4,-2,-4,-1,1756998783497119188
0,0.17457509,20250904111303497,None,31209,11.660530090332031,-1,-4,2,-1,0,-2,-1,-2,1756998783497251987
0,0.182082415,20250904111303504,None,31209,6.6631598472595215,0,1,0,0,1,1,-2,-1,1756998783504696369
0,0.182217836,20250904111303505,None,31209,6.6631598472595215,1,-2,0,-3,-1,-1,-1,3,1756998783504842042
0,0.189599752,20250904111303512,None,31209,6.6631598472595215,1,-3,-2,-5,-22,-8,-3,-1,1756998783512201547
0,0.189714909,20250904111303512,None,31209,6.6631598472595215,2,5,0,2,25,5,-4,0,1756998783512408733
0,0.204566479,20250904111303527,None,31209,5.4733099937438965,-4,4,0,2,-2,2,1,-2,1756998783527205944
0,0.20467639,20250904111303527,None,31209,5.4733099937438965,-3,-10,-2,-1,-9,-5,0,3,1756998783527361392
0,0.212006092,20250904111303534,None,31209,13.80225944519043,0,3,0,-3,-3,-2,-1,-1,1756998783534621477
0,0.212141037,20250904111303534,None,31209,13.80225944519043,1,2,-3,0,-3,-1,0,-1,1756998783534742116
0,0.219736338,20250904111303542,None,31209,5.71127986907959,-1,-2,0,-1,0,0,-2,-2,1756998783542190551
0,0.219862938,20250904111303542,None,31209,5.71127986907959,0,1,2,-3,1,0,-3,0,1756998783542470693
0,0.234754562,20250904111303557,None,31209,12.612409591674805,-1,-6,-3,-1,-2,-1,2,1,1756998783557214260
0,0.235033989,20250904111303557,None,31209,12.612409591674805,0,1,-4,-5,-3,-8,-6,-5,1756998783557488679
0,0.242166519,20250904111303565,None,31209,8.09097957611084,-2,0,0,1,-1,1,8,2,1756998783564764976
0,0.242288351,20250904111303565,None,31209,8.09097957611084,-1,-1,0,-2,1,-2,-2,1,1756998783564961910
0,0.249661446,20250904111303572,None,31209,9.994739532470703,-2,0,-3,-1,-3,-1,-1,-2,1756998783572262287
0,0.24977684,20250904111303572,None,31209,9.994739532470703,-1,0,-2,0,-4,0,-2,-1,1756998783572432994
0,0.264680624,20250904111303587,None,31209,7.139100074768066,0,2,0,0,1,0,-2,-1,1756998783587178230
0,0.264828682,20250904111303587,None,31209,7.139100074768066,2,-2,-1,-3,0,0,-1,2,1756998783587359189
0,0.2720685,20250904111303594,None,31209,7.139100074768066,-3,-2,-1,-2,-2,-1,0,1,1756998783594697475
0,0.272218227,20250904111303595,None,31209,7.139100074768066,-1,1,0,-1,0,0,-1,1,1756998783594819784
0,0.279768228,20250904111303602,None,31209,13.564290046691895,4,3,-1,1,-2,-2,-4,1,1756998783602260112
0,0.279964447,20250904111303602,None,31209,13.564290046691895,2,-3,0,0,0,1,-3,-1,1756998783602476119
0,0.294605732,20250904111303617,None,31209,14.040229797363281,-5,-2,-1,-2,-1,2,0,0,1756998783617204189
0,0.294721603,20250904111303617,None,31209,14.040229797363281,1,0,-1,-2,-1,-3,2,-3,1756998783617374658
0,0.30200696,20250904111303624,None,31209,5.949249744415283,0,-2,0,1,-3,-3,-1,0,1756998783624652147
0,0.302093983,20250904111303624,None,31209,5.949249744415283,-1,-2,-1,-1,0,-4,-1,1,1756998783624785661
0,0.309489965,20250904111303632,None,31209,5.949249744415283,-1,2,-1,1,-1,-1,-4,0,1756998783632145881
0,0.309577703,20250904111303632,None,31209,5.949249744415283,2,1,-1,0,-1,4,3,-1,1756998783632254362
0,0.324460983,20250904111303647,None,31209,7.615039825439453,-5,-11,-3,-3,-2,0,0,-1,1756998783647112369
0,0.324540377,20250904111303647,None,31209,7.615039825439453,-1,-1,1,-2,-1,1,0,1,1756998783647247791
0,0.332114458,20250904111303654,None,31209,10.470680236816406,0,-1,0,2,0,-1,-3,-1,1756998783654727697
0,0.332233667,20250904111303655,None,31209,10.470680236816406,-3,-1,-2,-4,-22,-8,-4,-1,1756998783654871702
0,0.339579582,20250904111303662,None,31209,10.470680236816406,-1,-2,-3,6,21,5,-3,-1,1756998783662223815
0,0.339681148,20250904111303662,None,31209,10.470680236816406,0,1,0,2,-2,2,0,-1,1756998783662375450
0,0.354385376,20250904111303677,None,31209,7.37706995010376,-1,1,-3,0,-7,-5,0,3,1756998783677047014
0,0.354450703,20250904111303677,None,31209,7.37706995010376,1,-1,-2,-2,-4,-3,2,-3,1756998783677142620
0,0.36193943,20250904111303684,None,31209,13.088349342346191,-2,-1,0,2,2,1,-2,-1,1756998783684581279
0,0.362105608,20250904111303684,None,31209,13.088349342346191,-4,-2,-1,0,1,-2,-2,1,1756998783684687614
0,0.369600058,20250904111303692,None,31209,5.4733099937438965,-4,2,-3,-2,-3,0,-1,0,1756998783692210674
0,0.369721413,20250904111303692,None,31209,5.4733099937438965,0,-2,1,-2,-2,-1,1,-1,1756998783692357540
0,0.384596586,20250904111303707,None,31209,14.040229797363281,-3,0,2,1,1,-1,-1,-1,1756998783707150936
0,0.384771824,20250904111303707,None,31209,14.040229797363281,-2,-2,-1,1,3,-2,-2,-1,1756998783707300186
0,0.392037153,20250904111303714,None,31209,5.4733099937438965,-4,-4,-4,-3,0,-2,-4,-4,1756998783714684724
0,0.392190218,20250904111303715,None,31209,5.4733099937438965,1,-1,-2,-3,-1,-3,-10,-5,1756998783714813947
0,0.399885416,20250904111303722,None,31209,13.564290046691895,-1,3,2,1,-2,7,13,3,1756998783722218990
0,0.400030136,20250904111303722,None,31209,13.564290046691895,-1,0,2,-3,1,1,0,4,1756998783722375154
0,0.423013925,20250904111303745,None,31209,9.994739532470703,2,1,4,-1,2,-1,0,0,1756998783745385885
0,0.4231534,20250904111303746,None,31209,9.994739532470703,2,-2,-1,-1,-2,-2,-2,0,1756998783745521068
0,0.423686504,20250904111303746,None,31209,9.994739532470703,2,4,1,3,-1,-1,-1,0,1756998783746333360
0,0.423803568,20250904111303746,None,31209,9.994739532470703,0,1,-3,-1,-4,-1,-1,-4,1756998783746526956
0,0.429582834,20250904111303752,None,31209,9.994739532470703,-3,-9,-5,-1,-1,-1,-2,-1,1756998783752189159
0,0.429698467,20250904111303752,None,31209,9.994739532470703,0,-4,1,-1,0,0,1,0,1756998783752360105
0,0.444585085,20250904111303767,None,31209,12.850379943847656,1,3,-1,-1,-1,1,0,-1,1756998783767220020
0,0.444716453,20250904111303767,None,31209,12.850379943847656,-2,-1,-3,-2,-1,-2,-4,-4,1756998783767371177
0,0.451898575,20250904111303774,None,31209,5.71127986907959,-1,3,-2,2,1,-3,0,-2,1756998783774591445
0,0.451994896,20250904111303774,None,31209,5.71127986907959,-1,0,0,0,-1,-2,-6,0,1756998783774734020
0,0.459531784,20250904111303782,None,31209,14.040229797363281,-2,0,1,-1,-1,-1,-1,-1,1756998783782160997
0,0.45964694,20250904111303782,None,31209,14.040229797363281,-2,-4,-3,-1,0,0,-1,-1,1756998783782276868
0,0.474594355,20250904111303797,None,31209,4.997369766235352,0,-1,-1,-6,-29,-13,-6,-2,1756998783797168493
0,0.474729776,20250904111303797,None,31209,4.997369766235352,-2,-2,0,3,28,10,8,4,1756998783797318220
0,0.482121944,20250904111303804,None,31209,13.564290046691895,-1,0,0,3,2,3,-3,-2,1756998783804721117
0,0.482233286,20250904111303805,None,31209,13.564290046691895,0,0,2,-5,-9,-4,1,0,1756998783804883956
0,0.489529133,20250904111303812,None,31209,6.6631598472595215,2,-1,1,-5,-6,-5,-1,1,1756998783812159061
0,0.489637375,20250904111303812,None,31209,6.6631598472595215,-1,1,-3,1,0,-3,-4,-1,1756998783812290191
0,0.504765034,20250904111303827,None,31209,9.280829429626465,-4,0,0,-3,2,-2,-2,-1,1756998783827275753
0,0.504955053,20250904111303827,None,31209,9.280829429626465,-2,-2,-2,1,-3,-2,-3,-6,1756998783827450513
0,0.512180805,20250904111303835,None,31209,9.280829429626465,1,-3,-1,-4,-3,-3,-3,-1,1756998783834752559
0,0.51232481,20250904111303835,None,31209,9.280829429626465,3,2,-3,-2,0,1,-2,-1,1756998783834900617
0,0.519601107,20250904111303842,None,31209,8.804889678955078,-1,-1,-4,-3,-2,-1,2,1,1756998783842240571
0,0.519714355,20250904111303842,None,31209,8.804889678955078,-3,-1,-1,-1,0,-4,1,-2,1756998783842388153
0,0.53459692,20250904111303857,None,31209,6.187219619750977,1,-2,1,1,3,-3,-1,2,1756998783857200622
0,0.534726381,20250904111303857,None,31209,6.187219619750977,-1,3,-1,-2,0,1,-1,-2,1756998783857362031
0,0.542019606,20250904111303864,None,31209,14.040229797363281,-2,-6,-1,-2,0,-2,-1,-3,1756998783864672422
0,0.542140007,20250904111303865,None,31209,14.040229797363281,-1,1,-3,-2,-1,0,0,0,1756998783864795446
0,0.54958725,20250904111303872,None,31209,5.235340118408203,3,4,5,4,1,-4,-4,-4,1756998783872184514
0,0.549664497,20250904111303872,None,31209,5.235340118408203,0,0,1,2,-3,4,2,-1,1756998783872354507
0,0.564633369,20250904111303887,None,31209,14.040229797363281,1,2,0,-2,-3,-5,1,0,1756998783887256145
0,0.564745903,20250904111303887,None,31209,14.040229797363281,0,2,1,1,1,1,2,-3,1756998783887424230
0,0.572000027,20250904111303894,None,31209,6.187219619750977,-1,-3,-2,0,1,-2,0,0,1756998783894662857
0,0.572097301,20250904111303894,None,31209,6.187219619750977,0,-2,-3,-2,0,-2,1,-2,1756998783894781589
0,0.579646349,20250904111303902,None,31209,11.660530090332031,-1,0,-1,0,-3,-1,-1,3,1756998783902279615
0,0.57973361,20250904111303902,None,31209,11.660530090332031,1,-4,0,-1,0,-3,-2,-2,1756998783902444362
0,0.594524145,20250904111303917,None,31209,8.804889678955078,0,-3,-3,-1,0,1,-2,-4,1756998783917174816
0,0.594624042,20250904111303917,None,31209,8.804889678955078,-4,0,1,2,-2,0,-2,-1,1756998783917321681
0,0.602106571,20250904111303924,None,31209,9.280829429626465,-2,-5,-3,-3,-2,0,1,-1,1756998783924715757
0,0.602194548,20250904111303925,None,31209,9.280829429626465,1,-1,-1,-2,1,0,-1,1,1756998783924874305
0,0.609599113,20250904111303932,None,31209,11.660530090332031,-1,1,-3,-1,-1,-2,3,0,1756998783932194709
0,0.609703064,20250904111303932,None,31209,11.660530090332031,-2,-1,-2,-9,-27,-7,-2,-1,1756998783932406425
0,0.624658823,20250904111303947,None,31209,14.278200149536133,-3,-5,-2,1,26,7,1,1,1756998783947221279
0,0.62477994,20250904111303947,None,31209,14.278200149536133,-1,-1,2,0,0,-2,-8,-1,1756998783947389125
0,0.63206768,20250904111303954,None,31209,14.278200149536133,0,3,0,-4,-8,2,4,1,1756998783954704523
0,0.632177591,20250904111303955,None,31209,14.278200149536133,1,6,2,-1,-4,-1,2,0,1756998783954880475
0,0.639627933,20250904111303962,None,31209,5.235340118408203,-5,-7,0,-4,-5,-1,-4,-4,1756998783962223768
0,0.63975954,20250904111303962,None,31209,5.235340118408203,-2,-6,-2,-2,-2,-2,-3,-3,1756998783962380170
0,0.654350758,20250904111303977,None,31209,5.71127986907959,0,2,-1,-2,0,-3,-1,-2,1756998783977073907
0,0.654589653,20250904111303977,None,31209,5.71127986907959,-4,-6,0,0,0,-4,-1,-2,1756998783977350234
0,0.66222477,20250904111303985,None,31209,12.136469841003418,0,-1,-2,0,-2,1,-1,-3,1756998783984871387
0,0.662299871,20250904111303985,None,31209,12.136469841003418,0,1,-1,0,-2,1,-1,-1,1756998783985025882
0,0.677453995,20250904111304000,None,31209,8.566919326782227,-3,-1,0,-3,-2,-2,-3,0,1756998784000062227
0,0.677606344,20250904111304000,None,31209,8.566919326782227,-2,-1,-2,1,2,-2,0,1,1756998784000285863
0,0.684960604,20250904111304007,None,31209,9.994739532470703,-1,-1,0,-1,-3,2,-4,-2,1756998784007579803
0,0.68506813,20250904111304007,None,31209,9.994739532470703,2,-5,-2,-1,-4,1,0,-4,1756998784007780313
0,0.692059755,20250904111304014,None,31209,11.660530090332031,-1,0,-1,-3,1,1,3,-1,1756998784014698505
0,0.692163706,20250904111304015,None,31209,11.660530090332031,-2,0,2,0,2,-1,-1,-1,1756998784014829158
0,0.70699501,20250904111304029,None,31209,6.901129722595215,1,0,-2,-4,2,-1,-4,-3,1756998784029656171
0,0.707089186,20250904111304029,None,31209,6.901129722595215,1,-2,0,-1,-2,-1,-3,-1,1756998784029777526
0,0.714707851,20250904111304037,None,31209,13.80225944519043,-3,3,0,-3,-1,-6,-9,-1,1756998784037292957
0,0.714839935,20250904111304037,None,31209,13.80225944519043,-1,0,1,-2,0,8,7,0,1756998784037475347
0,0.722000837,20250904111304044,None,31209,5.4733099937438965,-2,-2,-1,3,1,1,-2,-1,1756998784044661521
0,0.722182512,20250904111304045,None,31209,5.4733099937438965,-4,-1,1,-2,0,0,-2,0,1756998784044774770
0,0.737129211,20250904111304060,None,31209,5.71127986907959,1,3,-1,0,0,-1,0,-1,1756998784059722661
0,0.737282276,20250904111304060,None,31209,5.71127986907959,-2,-5,-3,-1,-1,-3,-2,-2,1756998784059863328
0,0.744576216,20250904111304067,None,31209,5.71127986907959,0,3,0,0,2,0,-2,-3,1756998784067238807
0,0.744668722,20250904111304067,None,31209,5.71127986907959,3,2,-1,1,0,0,-1,-1,1756998784067369461
0,0.752129078,20250904111304074,None,31209,12.612409591674805,-1,4,-1,-3,-1,1,0,-1,1756998784074745416
0,0.752278805,20250904111304075,None,31209,12.612409591674805,-4,-8,-4,-2,-1,-2,2,-1,1756998784074941635
0,0.767590046,20250904111304090,None,31209,10.232709884643555,-5,-1,-5,-4,-2,-3,0,-3,1756998784089669227
0,0.767804146,20250904111304090,None,31209,10.232709884643555,1,-4,-5,-2,1,-3,-4,-1,1756998784089790105
0,0.775033951,20250904111304097,None,31209,10.470680236816406,1,5,0,-4,1,-1,-1,-1,1756998784097171783
0,0.775253534,20250904111304098,None,31209,10.470680236816406,-2,-5,0,-4,-33,-9,-4,0,1756998784097303628
0,0.7824893,20250904111304105,None,31209,10.470680236816406,-3,-3,0,3,28,8,0,0,1756998784104651689
0,0.782707214,20250904111304105,None,31209,10.470680236816406,-1,-2,1,4,2,-1,-4,-2,1756998784104767560
0,0.79768753,20250904111304120,None,31209,13.564290046691895,-1,1,0,-3,-8,3,4,2,1756998784119829177
0,0.797931194,20250904111304120,None,31209,13.564290046691895,2,1,1,-2,-4,0,4,-3,1756998784119954586
0,0.813601971,20250904111304136,None,31209,13.80225944519043,0,-2,1,-1,-3,-4,-3,1,1756998784135759830
0,0.813760042,20250904111304136,None,31209,13.80225944519043,-1,-1,-2,-3,0,-3,-1,-3,1756998784135886192
0,0.820010424,20250904111304142,None,31209,5.235340118408203,-2,-1,-2,-1,-1,1,0,-1,1756998784142154932
0,0.820257664,20250904111304143,None,31209,5.235340118408203,-2,-1,-1,2,0,-1,1,1,1756998784142254114
0,0.827610731,20250904111304150,None,31209,5.235340118408203,-2,-5,0,1,2,-1,-1,-3,1756998784149633884
0,0.827832222,20250904111304150,None,31209,5.235340118408203,0,1,0,-1,1,-3,-1,0,1756998784149741649
0,0.835012197,20250904111304157,None,31209,13.088349342346191,-3,-2,-1,0,0,0,-1,0,1756998784157128334
0,0.835214376,20250904111304158,None,31209,13.088349342346191,0,-3,-3,-1,0,2,0,2,1756998784157332658
0,0.842569113,20250904111304165,None,31209,7.8530097007751465,-1,-2,2,2,-1,-3,-5,1,1756998784164697170
0,0.842808247,20250904111304165,None,31209,7.8530097007751465,0,5,2,0,-1,2,0,-1,1756998784164840221
0,0.857572317,20250904111304180,None,31209,9.994739532470703,0,0,-2,0,2,1,-1,-2,1756998784179702520
0,0.857816458,20250904111304180,None,31209,9.994739532470703,-4,-9,0,3,-4,-3,3,0,1756998784179847955
0,0.865033388,20250904111304187,None,31209,7.615039825439453,-1,-3,-3,-1,0,-1,-3,0,1756998784187216758
0,0.865254164,20250904111304188,None,31209,7.615039825439453,2,2,-3,-1,-1,-1,-6,-3,1756998784187371969
0,0.872607231,20250904111304195,None,31209,7.615039825439453,0,0,-2,3,1,5,11,-1,1756998784194656372
0,0.872790575,20250904111304195,None,31209,7.615039825439453,2,-2,-2,0,4,-1,2,-1,1756998784194771766
0,0.887604237,20250904111304210,None,31209,5.4733099937438965,1,2,-3,-2,-2,-1,-3,-5,1756998784209707975
0,0.88785243,20250904111304210,None,31209,5.4733099937438965,-2,-3,1,-2,0,0,3,1,1756998784209859132
0,0.895085812,20250904111304217,None,31209,14.040229797363281,-4,-5,-1,2,0,-2,-2,-2,1756998784217223405
0,0.895331621,20250904111304218,None,31209,14.040229797363281,-1,-1,-3,-4,-1,-3,-1,2,1756998784217413663
0,0.902504206,20250904111304225,None,31209,5.235340118408203,-1,-2,-1,1,-2,2,-5,1,1756998784224694490
0,0.902796268,20250904111304225,None,31209,5.235340118408203,-2,-1,1,-2,-3,0,1,0,1756998784224842548
0,0.917588234,20250904111304240,None,31209,13.80225944519043,0,1,1,0,-1,1,-1,0,1756998784239727020
0,0.917788982,20250904111304240,None,31209,13.80225944519043,0,-4,2,-2,-1,-2,-1,-2,1756998784239871263
0,0.925068378,20250904111304247,None,31209,7.37706995010376,0,-2,0,-2,0,-1,-2,0,1756998784247183561
0,0.925274134,20250904111304248,None,31209,7.37706995010376,1,1,2,-1,-1,0,-1,-1,1756998784247321128
0,0.932633638,20250904111304255,None,31209,11.42255973815918,0,-1,0,1,-1,0,2,-1,1756998784254718780
0,0.932863951,20250904111304255,None,31209,11.42255973815918,0,0,-3,-6,-28,-8,-2,-1,1756998784254857540
0,0.947566748,20250904111304270,None,31209,8.09097957611084,-1,0,2,2,26,3,-1,0,1756998784269727706
0,0.947810888,20250904111304270,None,31209,8.09097957611084,-1,-1,1,3,3,2,-2,-4,1756998784269876718
0,0.954856634,20250904111304277,None,31209,8.09097957611084,-4,-3,1,-3,-8,2,7,1,1756998784277198791
0,0.954991579,20250904111304277,None,31209,8.09097957611084,0,-2,-1,-1,-2,-3,-2,0,1756998784277361631
0,0.962081909,20250904111304284,None,31209,12.612409591674805,3,4,-3,-1,2,0,-3,-1,1756998784284693717
0,0.962208509,20250904111304285,None,31209,12.612409591674805,-5,-2,0,-3,2,-3,-1,-1,1756998784284830808
0,0.977140427,20250904111304300,None,31209,13.80225944519043,0,-2,-1,0,1,-2,-1,-2,1756998784299712657
0,0.977286816,20250904111304300,None,31209,13.80225944519043,-4,2,-3,-1,-3,-1,-4,-3,1756998784299877166
0,0.984628677,20250904111304307,None,31209,5.4733099937438965,1,5,3,2,3,0,4,1,1756998784307238101
0,0.984777689,20250904111304307,None,31209,5.4733099937438965,1,0,3,0,-2,1,-1,-2,1756998784307393550
0,0.992053509,20250904111304314,None,31209,5.4733099937438965,-2,0,-3,-2,-4,-3,0,-1,1756998784314711809
0,0.992227793,20250904111304315,None,31209,5.4733099937438965,-3,6,0,0,-2,1,-3,-1,1756998784314825534
0,1.007077694,20250904111304329,None,31209,6.6631598472595215,-5,-3,0,0,0,0,-1,-1,1756998784329683542
0,1.007188082,20250904111304330,None,31209,6.6631598472595215,1,-4,-2,2,0,2,0,-2,1756998784329822301
0,1.014577389,20250904111304337,None,31209,11.42255973815918,1,3,0,2,0,2,1,1,1756998784337211847
0,1.014684915,20250904111304337,None,31209,11.42255973815918,1,0,-3,-1,-2,-1,-1,-1,1756998784337357997
0,1.021981239,20250904111304344,None,31209,9.280829429626465,2,0,-1,3,-1,-3,-6,-2,1756998784344659566
0,1.022099733,20250904111304344,None,31209,9.280829429626465,1,1,0,-1,-1,1,-1,1,1756998784344784498
0,1.037126541,20250904111304359,None,31209,9.280829429626465,1,0,-2,0,-1,0,-2,1,1756998784359736204
0,1.037270069,20250904111304360,None,31209,9.280829429626465,-3,-2,-1,-2,1,0,0,1,1756998784359901428
0,1.044714928,20250904111304367,None,31209,12.136469841003418,0,-1,-1,-1,-1,-1,0,-2,1756998784367279529
0,1.044820547,20250904111304367,None,31209,12.136469841003418,-2,-1,0,0,-2,-2,1,5,1756998784367446422
0,1.052108288,20250904111304374,None,31209,6.187219619750977,-1,-7,0,-1,0,0,-3,-5,1756998784374729871
0,1.052203894,20250904111304375,None,31209,6.187219619750977,-2,4,-2,1,0,-1,-1,0,1756998784374874353
0,1.066901684,20250904111304389,None,31209,5.235340118408203,-1,-8,-3,-2,-2,-1,-3,-2,1756998784389582395
0,1.066983461,20250904111304389,None,31209,5.235340118408203,-1,-2,-2,0,-2,-3,-1,0,1756998784389694213
0,1.074518204,20250904111304397,None,31209,5.235340118408203,0,1,-1,-1,-4,0,1,-1,1756998784397138357
0,1.074614286,20250904111304397,None,31209,5.235340118408203,1,1,-2,-1,0,0,0,0,1756998784397258758
0,1.082055569,20250904111304404,None,31209,14.040229797363281,0,0,-2,-1,-4,-2,-1,-3,1756998784404698610
0,1.082163334,20250904111304405,None,31209,14.040229797363281,0,0,-1,1,0,0,1,0,1756998784404833793
0,1.097152233,20250904111304420,None,31209,12.136469841003418,-4,-6,-1,1,1,2,1,0,1756998784419693231
0,1.097252369,20250904111304420,None,31209,12.136469841003418,1,1,-1,-1,-1,-1,2,-3,1756998784419824600
0,1.104563236,20250904111304427,None,31209,8.804889678955078,-1,-1,-1,-4,-23,-8,-7,-1,1756998784427154064
0,1.104660988,20250904111304427,None,31209,8.804889678955078,-5,3,-3,0,23,7,8,-1,1756998784427271127
0,1.111907005,20250904111304434,None,31209,8.804889678955078,-2,-3,1,1,5,3,2,-1,1756998784434574842
0,1.111999988,20250904111304434,None,31209,8.804889678955078,-3,0,0,1,-7,1,-1,2,1756998784434679985
0,1.127120733,20250904111304449,None,31209,10.708649635314941,-2,-6,0,-3,-6,-4,-2,-2,1756998784449728250
0,1.127248764,20250904111304450,None,31209,10.708649635314941,1,-2,-4,-1,-2,-5,-3,-1,1756998784449886560
0,1.134602547,20250904111304457,None,31209,6.6631598472595215,-1,-1,0,2,1,-2,-2,1,1756998784457159280
0,1.134714603,20250904111304457,None,31209,6.6631598472595215,1,2,-2,-1,1,-1,0,-2,1756998784457249641
0,1.142033577,20250904111304464,None,31209,13.564290046691895,-1,-3,-1,-3,-3,-1,-1,0,1756998784464658498
0,1.142263651,20250904111304465,None,31209,13.564290046691895,0,-1,0,2,0,3,0,0,1756998784464870929
0,1.157072067,20250904111304479,None,31209,5.235340118408203,-1,1,3,-1,-1,0,-1,-2,1756998784479688405
0,1.157179832,20250904111304480,None,31209,5.235340118408203,2,0,-1,-1,1,-1,0,-1,1756998784479819774
0,1.164588213,20250904111304487,None,31209,14.278200149536133,-1,-1,0,1,0,2,1,-1,1756998784487236022
0,1.16470027,20250904111304487,None,31209,14.278200149536133,0,0,-2,-1,0,2,3,-1,1756998784487388849
0,1.172049522,20250904111304494,None,31209,6.187219619750977,-3,-3,-1,-3,2,-3,-2,0,1756998784494697570
0,1.172137022,20250904111304494,None,31209,6.187219619750977,-1,-5,-1,-1,-3,-1,-3,-3,1756998784494855642
0,1.187032938,20250904111304509,None,31209,12.850379943847656,0,-2,-1,-2,-4,-6,-4,-1,1756998784509634733
0,1.1871483330000001,20250904111304510,None,31209,12.850379943847656,-1,1,0,1,0,3,2,-1,1756998784509779930
0,1.194563627,20250904111304517,None,31209,8.566919326782227,1,1,-4,-1,0,0,1,0,1756998784517134428
0,1.19472599,20250904111304517,None,31209,8.566919326782227,-1,3,-2,0,-3,-3,-1,-4,1756998784517260551
0,1.202184439,20250904111304525,None,31209,10.232709884643555,0,-3,-3,-3,-2,1,-2,0,1756998784524624347
0,1.202347517,20250904111304525,None,31209,10.232709884643555,-1,0,2,-1,-3,-5,1,1,1756998784524737119
0,1.217604637,20250904111304540,None,31209,7.139100074768066,0,-3,-2,-1,-1,-1,0,-2,1756998784540074825
0,1.217769861,20250904111304540,None,31209,7.139100074768066,-1,-2,3,4,1,-1,-4,-3,1756998784540335416
0,1.225030184,20250904111304547,None,31209,13.80225944519043,-1,-6,-7,-3,-1,-1,4,-4,1756998784547643184
0,1.225139379,20250904111304548,None,31209,13.80225944519043,1,3,2,-2,0,2,-1,1,1756998784547813415
0,1.231950283,20250904111304554,None,31209,13.80225944519043,-6,1,1,-1,0,0,0,3,1756998784554646253
0,1.232036352,20250904111304554,None,31209,13.80225944519043,-3,-5,1,0,-2,2,-1,0,1756998784554764986
0,1.255347013,20250904111304578,None,31209,5.71127986907959,1,-1,-2,-2,-4,-4,-2,3,1756998784577920913
0,1.25551033,20250904111304578,None,31209,5.71127986907959,2,2,1,0,-1,1,-1,-2,1756998784578084707
0,1.255986214,20250904111304578,None,31209,5.71127986907959,2,2,-1,-5,-3,0,0,-1,1756998784578658342
0,1.256067276,20250904111304578,None,31209,5.71127986907959,0,1,-2,-1,-1,-7,-7,-2,1756998784578788280
0,1.262036085,20250904111304584,None,31209,13.088349342346191,4,-1,-6,-1,-1,3,4,0,1756998784584700107
0,1.26213336,20250904111304585,None,31209,13.088349342346191,2,-2,5,0,1,0,-2,1,1756998784584814786
0,1.277036667,20250904111304599,None,31209,7.8530097007751465,-3,-3,-1,4,4,0,-1,-1,1756998784599673509
0,1.277138948,20250904111304600,None,31209,7.8530097007751465,2,0,-4,4,-1,-5,-1,-2,1756998784599796295
0,1.284490824,20250904111304607,None,31209,10.470680236816406,-4,-1,-4,-2,0,1,1,-1,1756998784607162952
0,1.284571648,20250904111304607,None,31209,10.470680236816406,-3,-3,-2,-1,-1,-2,-2,-1,1756998784607281446
0,1.2919662,20250904111304614,None,31209,10.470680236816406,1,3,4,1,0,-1,-2,0,1756998784614635229
0,1.292053699,20250904111304614,None,31209,10.470680236816406,-1,2,-1,-1,-1,-3,-1,0,1756998784614737033
0,1.307139397,20250904111304630,None,31209,13.564290046691895,-1,-8,0,-3,-3,-2,-2,-3,1756998784629747152
0,1.307259083,20250904111304630,None,31209,13.564290046691895,0,-2,-1,-1,-3,1,0,-1,1756998784629884481
0,1.31456995,20250904111304637,None,31209,13.564290046691895,0,1,1,-2,-3,2,-1,0,1756998784637208223
0,1.314659595,20250904111304637,None,31209,13.564290046691895,1,2,-2,0,-1,-1,-1,-1,1756998784637341022
0,1.322074413,20250904111304644,None,31209,5.4733099937438965,3,-3,-5,-2,-3,-1,-1,0,1756998784644707918
0,1.322166443,20250904111304645,None,31209,5.4733099937438965,1,0,0,-1,1,-4,-7,-2,1756998784644850254
0,1.337088108,20250904111304659,None,31209,5.4733099937438965,-1,-1,-1,-1,-2,-1,6,2,1756998784659706592
0,1.33719039,20250904111304660,None,31209,5.4733099937438965,-1,2,1,-2,2,-2,-7,-3,1756998784659866809
0,1.344602585,20250904111304667,None,31209,13.80225944519043,-3,-4,-4,-1,1,2,1,0,1756998784667178869
0,1.34472394,20250904111304667,None,31209,13.80225944519043,-1,0,-1,1,-2,1,1,1,1756998784667262792
0,1.352037191,20250904111304674,None,31209,13.80225944519043,-2,-2,-1,-4,-3,0,0,-1,1756998784674689531
0,1.352146149,20250904111304675,None,31209,13.80225944519043,-2,-4,-3,-2,-2,-3,-1,-2,1756998784674801349
0,1.367153168,20250904111304690,None,31209,10.946619987487793,2,-2,0,1,2,1,0,1,1756998784689749717
0,1.367248058,20250904111304690,None,31209,10.946619987487793,-1,3,1,-3,-1,2,-1,0,1756998784689873695
0,1.374578476,20250904111304697,None,31209,10.232709884643555,-2,-1,-2,0,0,0,-2,0,1756998784697243213
0,1.374700069,20250904111304697,None,31209,10.232709884643555,1,-1,-4,1,-3,-3,-1,-2,1756998784697371721
0,1.382009506,20250904111304704,None,31209,8.328949928283691,-1,2,2,0,-1,3,0,-2,1756998784704689264
0,1.382103681,20250904111304704,None,31209,8.328949928283691,0,2,0,-1,-3,-2,0,-1,1756998784704808950
0,1.397111416,20250904111304719,None,31209,13.088349342346191,-2,-3,-2,-2,-4,0,0,-1,1756998784719737291
0,1.397218704,20250904111304720,None,31209,13.088349342346191,-1,-2,0,0,0,0,2,-2,1756998784719873189
0,1.412721634,20250904111304735,None,31209,14.278200149536133,3,-1,-2,0,-3,1,-3,-1,1756998784735323905
0,1.412810087,20250904111304735,None,31209,14.278200149536133,2,2,-1,3,0,-2,0,-2,1756998784735442161
0,1.413324356,20250904111304736,None,31209,14.278200149536133,-1,-7,-5,1,-3,-1,-1,2,1756998784736063957
0,1.413448811,20250904111304736,None,31209,14.278200149536133,-4,-5,-2,-4,-4,-1,0,-3,1756998784736173152
0,1.427046537,20250904111304749,None,31209,5.4733099937438965,1,0,2,-1,-2,-6,-9,-4,1756998784749687910
0,1.427146912,20250904111304750,None,31209,5.4733099937438965,-3,-1,-1,-2,0,5,7,2,1756998784749806404
0,1.434488535,20250904111304757,None,31209,14.040229797363281,-1,-3,0,1,-1,-2,2,-1,1756998784757145881
0,1.434624433,20250904111304757,None,31209,14.040229797363281,1,-2,0,1,-2,2,-3,-1,1756998784757262706
0,1.441960812,20250904111304764,None,31209,7.37706995010376,-2,0,-2,-2,1,0,-1,-5,1756998784764652013
0,1.442043066,20250904111304764,None,31209,7.37706995010376,-2,1,0,1,1,1,0,-3,1756998784764768838
0,1.457146883,20250904111304780,None,31209,9.756770133972168,1,-1,3,1,-1,-2,-2,-2,1756998784779731750
0,1.457268238,20250904111304780,None,31209,9.756770133972168,-3,-2,-3,-3,-2,-3,-1,-1,1756998784779874086
0,1.464689732,20250904111304787,None,31209,8.804889678955078,-2,-1,-4,-2,-1,-3,-1,-3,1756998784787281990
0,1.464817285,20250904111304787,None,31209,8.804889678955078,1,0,0,2,-1,-1,-4,1,1756998784787458896
0,1.472154379,20250904111304795,None,31209,8.804889678955078,-3,-1,-3,-3,-2,-1,3,-4,1756998784794761896
0,1.472274542,20250904111304795,None,31209,8.804889678955078,0,0,-3,-1,-1,-1,0,1,1756998784794925212
0,1.487255335,20250904111304810,None,31209,5.949249744415283,-2,0,0,-1,-1,-1,1,3,1756998784809805393
0,1.487446308,20250904111304810,None,31209,5.949249744415283,-2,-5,-1,0,2,-2,-3,-1,1756998784809996366
0,1.494597435,20250904111304817,None,31209,14.278200149536133,1,-2,-1,0,1,1,2,0,1756998784817181348
0,1.494707107,20250904111304817,None,31209,14.278200149536133,1,1,-3,-1,-3,-1,1,-1,1756998784817262887
0,1.502135754,20250904111304825,None,31209,5.4733099937438965,-2,0,0,1,2,-3,-1,-1,1756998784824740409
0,1.5024993420000001,20250904111304825,None,31209,5.4733099937438965,2,0,2,3,-1,-4,-4,-1,1756998784824884414
0,1.517150879,20250904111304840,None,31209,14.040229797363281,-1,0,-1,-2,-2,4,2,-2,1756998784839675903
0,1.517278433,20250904111304840,None,31209,14.040229797363281,-1,-8,-1,-2,-1,-2,3,-1,1756998784839797019
0,1.52458787,20250904111304847,None,31209,6.425189971923828,-1,-1,0,0,1,-2,-1,0,1756998784847213983
0,1.5247008800000001,20250904111304847,None,31209,6.425189971923828,-1,2,-1,-1,-1,0,-3,1,1756998784847370147
0,1.539763212,20250904111304862,None,31209,9.04286003112793,-1,4,0,-3,-2,0,3,-1,1756998784862344026
0,1.539889097,20250904111304862,None,31209,9.04286003112793,2,1,0,-1,-1,-1,0,-1,1756998784862545728
0,1.5470464229999998,20250904111304869,None,31209,9.04286003112793,-1,1,-3,-1,2,-2,-2,-3,1756998784869696855
0,1.547168016,20250904111304870,None,31209,9.04286003112793,-1,0,-1,-2,1,0,-4,-3,1756998784869828462
0,1.554874897,20250904111304877,None,31209,9.280829429626465,-1,2,2,2,-4,-1,-5,-1,1756998784877207040
0,1.5551176070000001,20250904111304877,None,31209,9.280829429626465,-5,-4,-2,-1,0,1,0,-1,1756998784877345561
0,1.562340498,20250904111304885,None,31209,11.898499488830566,0,1,1,1,-2,-2,-2,-1,1756998784884687185
0,1.56273818,20250904111304885,None,31209,11.898499488830566,0,0,2,0,0,-4,-3,0,1756998784884801864
0,1.577595949,20250904111304900,None,31209,14.040229797363281,-1,-7,0,-2,-1,-1,0,3,1756998784899719476
0,1.578099012,20250904111304900,None,31209,14.040229797363281,-1,0,0,0,0,-2,2,-3,1756998784899851560
0,1.5850026609999999,20250904111304907,None,31209,5.4733099937438965,0,0,2,-2,0,-4,-5,-3,1756998784907196521
0,1.585225344,20250904111304908,None,31209,5.4733099937438965,-2,1,-1,-1,0,3,7,1,1756998784907320499
0,1.592489958,20250904111304915,None,31209,5.4733099937438965,-2,0,-4,-1,-3,-2,-3,-2,1756998784914670228
0,1.592709303,20250904111304915,None,31209,5.4733099937438965,1,1,-1,-1,1,-3,0,0,1756998784914778470
0,1.607599258,20250904111304930,None,31209,5.949249744415283,2,-3,-2,-3,-2,-2,-2,0,1756998784929698705
0,1.607845306,20250904111304930,None,31209,5.949249744415283,-2,1,-3,0,-3,2,-3,-1,1756998784929812431
0,1.6149501800000001,20250904111304937,None,31209,12.136469841003418,-3,-3,0,-1,-2,-1,-3,0,1756998784937162637
0,1.6151671410000001,20250904111304938,None,31209,12.136469841003418,-2,-2,0,-3,0,1,0,-1,1756998784937249898
0,1.6297810080000001,20250904111304952,None,31209,8.566919326782227,2,-4,1,1,2,2,-1,0,1756998784952132940
0,1.629928112,20250904111304952,None,31209,8.566919326782227,2,4,-2,-3,-2,-2,2,-3,1756998784952249526
0,1.637453794,20250904111304960,None,31209,10.232709884643555,-3,-7,1,-3,-1,-2,1,0,1756998784959636688
0,1.637675285,20250904111304960,None,31209,10.232709884643555,-1,-3,-1,-1,0,1,2,3,1756998784959752082
0,1.6450066570000001,20250904111304967,None,31209,11.898499488830566,0,2,1,-3,2,-2,-3,1,1756998784967282056
0,1.645186186,20250904111304968,None,31209,11.898499488830566,0,2,-1,-3,-1,0,-3,-1,1756998784967435836
0,1.660116672,20250904111304983,None,31209,13.80225944519043,-3,1,1,1,-1,-2,-3,-3,1756998784982268571
0,1.6603350639999999,20250904111304983,None,31209,13.80225944519043,0,1,-3,-1,-1,0,1,-4,1756998784982404947
0,1.6678342819999998,20250904111304990,None,31209,5.71127986907959,0,0,-1,1,-1,-4,-5,1,1756998784989732980
0,1.668086529,20250904111304990,None,31209,5.71127986907959,-1,1,-2,-3,-2,2,5,-2,1756998784989897251
0,1.675033569,20250904111304997,None,31209,5.71127986907959,-1,0,3,0,0,3,0,0,1756998784997192621
0,1.675341844,20250904111304998,None,31209,14.040229797363281,-1,1,0,0,-1,-3,-1,-4,1756998784997338056
0,1.690075397,20250904111305012,None,31209,5.71127986907959,-3,-3,-2,1,1,-1,-4,-1,1756998785012209415
0,1.690351486,20250904111305013,None,31209,5.71127986907959,0,3,1,0,0,0,-1,-2,1756998785012372016
0,1.697460413,20250904111305020,None,31209,12.612409591674805,-4,-7,-4,1,-1,-2,-4,0,1756998785019642353
0,1.697642803,20250904111305020,None,31209,12.612409591674805,-4,-2,-4,0,-1,-2,-1,0,1756998785019772768
0,1.7046899789999999,20250904111305027,None,31209,8.328949928283691,-2,-2,2,-2,0,-2,-1,1,1756998785027167558
0,1.704830885,20250904111305027,None,31209,8.328949928283691,-4,2,0,-1,1,-1,0,-1,1756998785027250766
0,1.720053434,20250904111305042,None,31209,10.470680236816406,2,0,-2,-1,0,0,-1,0,1756998785042246103
0,1.720271587,20250904111305043,None,31209,10.470680236816406,0,-1,0,-4,-2,1,3,-1,1756998785042392969
0,1.72764492,20250904111305050,None,31209,11.184589385986328,-2,0,-3,-5,-1,-2,0,0,1756998785049757957
0,1.727893829,20250904111305050,None,31209,11.184589385986328,0,3,0,4,1,-4,0,-1,1756998785049912929
0,1.735010862,20250904111305057,None,31209,7.37706995010376,0,-2,0,1,-2,-3,-1,2,1756998785057259559
0,1.7352302069999999,20250904111305058,None,31209,7.37706995010376,-1,-1,-2,3,0,0,-2,-1,1756998785057397603
0,1.7505524160000001,20250904111305073,None,31209,5.4733099937438965,-3,5,-2,0,0,-2,-2,-2,1756998785072682142
0,1.7507967949999999,20250904111305073,None,31209,5.4733099937438965,-4,-5,0,1,-1,-3,-8,-4,1756998785072821617
0,1.75758028,20250904111305080,None,31209,5.4733099937438965,-1,0,0,0,-5,3,8,1,1756998785079670190
0,1.757811308,20250904111305080,None,31209,5.4733099937438965,-4,0,-2,-2,0,1,-1,-2,1756998785079788684
0,1.765130997,20250904111305088,None,31209,14.040229797363281,0,-1,-5,-1,0,-2,1,1,1756998785087183952
0,1.765411377,20250904111305088,None,31209,14.040229797363281,-1,0,-1,0,-1,-1,2,-2,1756998785087329864
0,1.779881,20250904111305102,None,31209,13.326319694519043,-1,3,-3,-1,-2,-1,1,0,1756998785102248907
0,1.780122757,20250904111305102,None,31209,13.326319694519043,0,0,-2,-2,-1,-1,-1,1,1756998785102394580
0,1.7872791289999999,20250904111305110,None,31209,7.8530097007751465,-3,-1,1,-2,1,0,1,0,1756998785109693527
0,1.787536621,20250904111305110,None,31209,7.8530097007751465,-1,-4,-3,-1,-3,0,1,-2,1756998785109819650
0,1.794720173,20250904111305117,None,31209,7.8530097007751465,-4,-2,-3,-1,1,0,0,-1,1756998785117166519
0,1.795111895,20250904111305117,None,31209,7.8530097007751465,1,2,2,2,2,-1,0,2,1756998785117249965
0,1.818439007,20250904111305141,None,31209,7.8530097007751465,0,-3,1,-1,0,1,-3,-1,1756998785140546083
0,1.8186790940000002,20250904111305141,None,31209,7.8530097007751465,-2,-5,-1,1,-2,0,0,-1,1756998785140719175
0,1.818866968,20250904111305141,None,31209,7.8530097007751465,1,-3,-2,-2,0,-3,-1,-2,1756998785141257286
0,1.8190202709999999,20250904111305141,None,31209,7.8530097007751465,1,-2,0,1,2,-2,-1,0,1756998785141372203
0,1.825067043,20250904111305147,None,31209,13.326319694519043,1,0,-1,0,-2,-2,-2,0,1756998785147261381
0,1.825311899,20250904111305148,None,31209,13.326319694519043,2,-3,1,1,0,-1,-8,-3,1756998785147388458
0,1.840138912,20250904111305163,None,31209,5.71127986907959,1,-3,-1,0,-1,2,5,0,1756998785162295579
0,1.8404400349999999,20250904111305163,None,31209,5.71127986907959,-1,-2,-2,-4,-1,-3,-3,0,1756998785162448644
0,1.8476207260000002,20250904111305170,None,31209,14.516169548034668,2,-1,1,1,-1,-1,-4,-2,1756998785169722318
0,1.847815752,20250904111305170,None,31209,14.516169548034668,2,-1,1,2,0,-4,3,-3,1756998785169859647
0,1.854946613,20250904111305177,None,31209,5.4733099937438965,1,-1,-1,-2,-2,0,-1,0,1756998785177171707
0,1.85516262,20250904111305178,None,31209,5.4733099937438965,1,2,0,3,0,-1,-1,1,1756998785177248477
0,1.87012434,20250904111305193,None,31209,7.37706995010376,-3,3,0,1,-7,-5,1,-1,1756998785192307472
0,1.870342016,20250904111305193,None,31209,7.37706995010376,-3,-9,-2,0,2,1,0,-3,1756998785192442893
0,1.8775267599999999,20250904111305200,None,31209,7.37706995010376,3,-1,-1,-1,0,-1,-1,0,1756998785199715375
0,1.8777701850000001,20250904111305200,None,31209,7.37706995010376,1,0,0,0,0,1,0,0,1756998785199841976
0,1.8848621840000002,20250904111305207,None,31209,11.42255973815918,0,-3,2,1,2,0,0,2,1756998785207215070
0,1.8850088120000001,20250904111305207,None,31209,11.42255973815918,0,2,0,-2,-1,1,-3,0,1756998785207340955
0,1.900058031,20250904111305222,None,31209,8.804889678955078,0,2,0,1,-1,-1,-3,0,1756998785222251892
0,1.9002788069999998,20250904111305223,None,31209,8.804889678955078,0,-1,-1,1,-1,0,-1,-4,1756998785222387552
0,1.9074635500000001,20250904111305230,None,31209,12.850379943847656,-3,-1,0,2,3,-3,1,2,1756998785229685068
0,1.907686949,20250904111305230,None,31209,12.850379943847656,-1,-2,0,-2,1,-3,-8,-4,1756998785229809045
0,1.914852142,20250904111305237,None,31209,12.850379943847656,3,1,-1,0,0,3,8,1,1756998785237196683
0,1.9150655269999999,20250904111305237,None,31209,12.850379943847656,-1,2,-4,-1,1,-1,0,0,1756998785237323284
0,1.930067778,20250904111305252,None,31209,14.278200149536133,-3,-7,1,2,-2,-3,-4,-3,1756998785252297163
0,1.930309057,20250904111305253,None,31209,14.278200149536133,0,0,-2,1,-2,-3,-1,-2,1756998785252431869
0,1.937556982,20250904111305260,None,31209,5.4733099937438965,0,-2,-1,-3,-4,0,4,0,1756998785259721279
0,1.937808275,20250904111305260,None,31209,5.4733099937438965,0,-3,1,-1,-2,-1,2,-1,1756998785259836196
0,1.945134878,20250904111305268,None,31209,13.80225944519043,1,1,1,1,3,0,-1,0,1756998785267283678
0,1.9454152580000001,20250904111305268,None,31209,13.80225944519043,-1,-3,-3,-3,1,0,-3,-1,1756998785267401933
0,1.960086584,20250904111305282,None,31209,6.901129722595215,1,-5,2,0,-1,-2,0,-2,1756998785282262563
0,1.960312843,20250904111305283,None,31209,6.901129722595215,-2,0,1,-1,-3,-1,0,0,1756998785282416105
0,1.967585087,20250904111305290,None,31209,12.136469841003418,0,4,-2,-3,-3,1,0,-4,1756998785289668321
0,1.967799663,20250904111305290,None,31209,12.136469841003418,-1,0,-3,1,-1,-1,-1,1,1756998785289797306
0,1.974998236,20250904111305297,None,31209,9.518799781799316,1,-3,-2,-2,-3,-1,1,0,1756998785297176122
0,1.9752230640000001,20250904111305298,None,31209,9.518799781799316,2,3,-1,-3,2,0,-3,-4,1756998785297321796
0,1.99012804,20250904111305313,None,31209,9.280829429626465,-3,-4,0,-1,-2,0,-4,-1,1756998785312310457
0,1.9903569220000001,20250904111305313,None,31209,9.280829429626465,0,-4,-1,2,-4,5,10,0,1756998785312472105
0,1.9973998069999999,20250904111305320,None,31209,12.374439239501953,2,0,-3,-1,-1,0,0,1,1756998785319717168
0,1.997617245,20250904111305320,None,31209,12.374439239501953,-2,-1,0,0,0,-1,-2,-1,1756998785319842576
0,2.004995584,20250904111305327,None,31209,6.187219619750977,-1,0,-1,-3,-3,1,-5,1,1756998785327208280
0,2.005219698,20250904111305328,None,31209,6.187219619750977,-3,-2,4,-1,-2,-1,1,-1,1756998785327341556
0,2.020004988,20250904111305342,None,31209,5.4733099937438965,0,2,-5,-1,-1,-2,0,0,1756998785342254161
0,2.020222902,20250904111305343,None,31209,5.4733099937438965,2,0,0,3,0,-3,0,0,1756998785342386960
0,2.027739763,20250904111305350,None,31209,14.040229797363281,2,-1,-2,-3,1,-6,1,-2,1756998785349728345
0,2.027985811,20250904111305350,None,31209,14.040229797363281,-5,0,0,-2,-3,-2,-2,0,1756998785349917888
0,2.034884214,20250904111305357,None,31209,14.040229797363281,-3,-7,0,-2,0,-3,1,-1,1756998785357211112
0,2.035078287,20250904111305357,None,31209,14.040229797363281,-4,-7,-2,0,-3,-3,0,-3,1756998785357350111
0,2.05001831,20250904111305372,None,31209,12.612409591674805,0,1,0,0,-2,-3,-2,-5,1756998785372285842
0,2.050214291,20250904111305373,None,31209,12.612409591674805,2,2,0,-1,3,2,1,-2,1756998785372422695
0,2.057317018,20250904111305380,None,31209,9.04286003112793,2,-1,-2,-2,0,0,2,-1,1756998785379709482
0,2.05767703,20250904111305380,None,31209,9.04286003112793,0,-1,2,2,-1,-3,-3,0,1756998785379859924
0,2.064827919,20250904111305387,None,31209,9.756770133972168,1,-1,-4,-2,-4,8,12,1,1756998785387266635
0,2.065040827,20250904111305387,None,31209,9.756770133972168,-2,-1,0,-1,0,-1,-1,1,1756998785387401580
0,2.080092192,20250904111305402,None,31209,11.898499488830566,-1,1,-1,-2,0,-1,-3,-1,1756998785402271032
0,2.080311775,20250904111305403,None,31209,11.898499488830566,0,0,-1,-4,-2,-3,-2,0,1756998785402416944
0,2.087606192,20250904111305410,None,31209,6.6631598472595215,3,1,-1,-1,0,0,0,-1,1756998785409735679
0,2.087847233,20250904111305410,None,31209,6.6631598472595215,-2,5,-1,-4,-3,-1,0,-2,1756998785409868001
0,2.094990015,20250904111305417,None,31209,13.80225944519043,-1,-7,-3,0,-1,1,0,-1,1756998785417184352
0,2.095237017,20250904111305418,None,31209,13.80225944519043,-1,-2,-2,-1,-1,2,-1,1,1756998785417251586
0,2.110123873,20250904111305433,None,31209,14.040229797363281,-3,-3,0,0,0,-2,0,0,1756998785432294130
0,2.110362291,20250904111305433,None,31209,14.040229797363281,0,0,-1,-1,1,0,0,-2,1756998785432422876
0,2.11730051,20250904111305440,None,31209,14.040229797363281,-1,3,-1,-3,-1,-3,-1,-4,1756998785439668655
0,2.117537022,20250904111305440,None,31209,14.040229797363281,0,-2,-1,-1,-2,-1,1,3,1756998785439789533
0,2.124975681,20250904111305447,None,31209,5.949249744415283,-4,-2,-1,0,-2,2,-1,1,1756998785447215080
0,2.125152349,20250904111305448,None,31209,5.949249744415283,-1,0,0,0,1,3,-1,-1,1756998785447349071
0,2.1400356289999998,20250904111305462,None,31209,8.566919326782227,1,0,1,-1,3,0,2,-2,1756998785462240457
0,2.140251875,20250904111305463,None,31209,8.566919326782227,-1,-4,-1,-2,-1,-4,-6,-3,1756998785462370157
0,2.155681372,20250904111305478,None,31209,11.42255973815918,0,1,0,-2,-1,2,5,1,1756998785477950572
0,2.155922651,20250904111305478,None,31209,11.42255973815918,1,3,1,2,2,-1,0,-1,1756998785478099822
0,2.156092167,20250904111305478,None,31209,11.42255973815918,-3,-8,-1,-1,-1,-1,1,-1,1756998785478679180
0,2.15621686,20250904111305479,None,31209,11.42255973815918,-3,-1,0,2,-2,2,0,-2,1756998785478788137
0,2.169697046,20250904111305492,None,31209,7.139100074768066,0,1,1,1,-1,0,0,0,1756998785492264270
0,2.169867515,20250904111305492,None,31209,7.139100074768066,0,-3,-4,-1,0,-5,0,-1,1756998785492416858
0,2.177055836,20250904111305499,None,31209,14.040229797363281,-1,-3,0,3,2,1,0,-1,1756998785499691486
0,2.177181959,20250904111305500,None,31209,14.040229797363281,-1,3,1,-1,-2,0,-1,0,1756998785499814748
0,2.184688091,20250904111305507,None,31209,5.4733099937438965,0,-3,-4,-1,-1,-1,1,0,1756998785507299900
0,2.184873342,20250904111305507,None,31209,5.4733099937438965,-1,-5,-4,-1,-4,-2,-4,-1,1756998785507443904
0,2.207784891,20250904111305530,None,31209,5.949249744415283,-2,4,3,-1,0,-1,0,0,1756998785530348777
0,2.207908869,20250904111305530,None,31209,5.949249744415283,-1,-6,-3,-2,4,0,-1,-2,1756998785530501127
0,2.208444118,20250904111305531,None,31209,5.949249744415283,-1,-3,0,0,-1,0,0,-2,1756998785531059503
0,2.208556652,20250904111305531,None,31209,5.949249744415283,1,0,2,2,-4,-3,0,-1,1756998785531165599
0,2.214699984,20250904111305537,None,31209,13.088349342346191,-3,-2,-1,0,0,-1,-1,1,1756998785537188529
0,2.2148571009999998,20250904111305537,None,31209,13.088349342346191,-3,-2,0,-3,1,0,-1,-1,1756998785537351369
0,2.229735851,20250904111305552,None,31209,10.708649635314941,1,-1,0,1,-1,-2,-4,0,1756998785552221775
0,2.229935169,20250904111305552,None,31209,10.708649635314941,-3,-1,-2,-2,0,-1,1,0,1756998785552423000
0,2.2370982169999998,20250904111305559,None,31209,10.708649635314941,1,0,2,3,-2,-2,2,0,1756998785559733867
0,2.237220287,20250904111305560,None,31209,10.708649635314941,-3,-1,-2,-4,0,-2,2,-4,1756998785559862375
0,2.244546175,20250904111305567,None,31209,10.708649635314941,4,1,-3,1,-2,0,3,0,1756998785567199230
0,2.244621754,20250904111305567,None,31209,10.708649635314941,-3,2,-4,-1,-3,0,-2,0,1756998785567357540
0,2.259680271,20250904111305582,None,31209,13.326319694519043,-1,0,-1,0,0,3,0,-1,1756998785582281589
0,2.259804964,20250904111305582,None,31209,13.326319694519043,-1,-2,0,-5,-1,-1,-2,-2,1756998785582421779
0,2.267168283,20250904111305590,None,31209,5.235340118408203,0,2,0,0,0,-4,-1,-2,1756998785589803457
0,2.267286301,20250904111305590,None,31209,5.235340118408203,-1,1,-1,0,-1,-2,-1,0,1756998785589915037
0,2.27466774,20250904111305597,None,31209,5.235340118408203,-1,-1,0,-1,-2,2,2,0,1756998785597295522
0,2.274780273,20250904111305597,None,31209,5.235340118408203,-2,2,0,0,1,-1,3,2,1756998785597440481
0,2.289741993,20250904111305612,None,31209,5.4733099937438965,2,0,-3,0,-1,1,-3,0,1756998785612373352
0,2.289856911,20250904111305612,None,31209,5.4733099937438965,-2,-4,-1,-2,-2,0,0,0,1756998785612500667
0,2.297605514,20250904111305620,None,31209,13.564290046691895,2,1,-1,-1,-2,0,-1,1,1756998785619830608
0,2.297864199,20250904111305620,None,31209,13.564290046691895,-1,4,-1,1,-2,-1,-2,-1,1756998785619954347
0,2.304991722,20250904111305627,None,31209,7.37706995010376,-4,0,3,-2,2,-2,-5,-3,1756998785627310514
0,2.3052208419999998,20250904111305628,None,31209,7.37706995010376,-2,-7,-1,1,1,6,6,1,1756998785627425193
0,2.319954634,20250904111305642,None,31209,10.946619987487793,1,-2,0,-2,0,-1,1,-3,1756998785642369985
0,2.320351839,20250904111305643,None,31209,10.946619987487793,0,-1,-1,-2,-4,-4,-1,0,1756998785642497301
0,2.327512503,20250904111305650,None,31209,9.518799781799316,-3,1,-1,0,-5,-4,-4,-1,1756998785649832963
0,2.327759743,20250904111305650,None,31209,9.518799781799316,0,0,-1,-1,2,-2,-2,0,1756998785649944543
0,2.334698439,20250904111305657,None,31209,8.09097957611084,2,3,0,1,-1,-2,-2,-1,1756998785657357931
0,2.334801435,20250904111305657,None,31209,8.09097957611084,-2,0,-1,0,-1,-3,-4,-1,1756998785657482862
0,2.349707365,20250904111305672,None,31209,13.088349342346191,-1,-1,-2,-4,-1,0,1,-1,1756998785672336816
0,2.349800348,20250904111305672,None,31209,13.088349342346191,0,-1,-1,-2,-2,-1,3,3,1756998785672463417
0,2.366056204,20250904111305688,None,31209,14.278200149536133,0,-5,-4,-3,-2,1,-6,-1,1756998785688687324
0,2.366156578,20250904111305689,None,31209,14.278200149536133,-1,-2,-1,-1,-2,-1,1,1,1756998785688819169
0,2.366688728,20250904111305689,None,31209,14.278200149536133,2,-1,0,0,0,-2,-3,-1,1756998785689397335
0,2.366770267,20250904111305689,None,31209,14.278200149536133,-4,-3,-2,-7,-1,1,0,0,1756998785689502000
0,2.379683018,20250904111305702,None,31209,14.040229797363281,1,1,2,-1,-1,-1,-1,1,1756998785702333211
0,2.379761457,20250904111305702,None,31209,14.040229797363281,-3,-1,-3,1,1,-3,-2,1,1756998785702456235
0,2.387051582,20250904111305709,None,31209,14.040229797363281,-2,-6,-4,-2,-5,-11,-6,-4,1756998785709755659
0,2.387108564,20250904111305709,None,31209,14.040229797363281,-3,-2,0,-1,3,6,8,-1,1756998785709855556
0,2.394701958,20250904111305717,None,31209,7.37706995010376,-1,3,1,1,1,-3,-1,-1,1756998785717378616
0,2.394789934,20250904111305717,None,31209,7.37706995010376,2,1,-1,-4,0,-2,2,-3,1756998785717520236
0,2.409760952,20250904111305732,None,31209,9.756770133972168,-3,-3,-3,-1,-1,-4,-3,-2,1756998785732370853
0,2.409945726,20250904111305732,None,31209,9.756770133972168,0,0,-3,-1,0,-3,-3,-2,1756998785732535600
0,2.417229175,20250904111305740,None,31209,9.04286003112793,-1,4,-1,1,-2,-3,-1,-3,1756998785739889144
0,2.417309761,20250904111305740,None,31209,9.04286003112793,-4,-6,0,1,0,-1,-1,-1,1756998785740032672
0,2.425185203,20250904111305748,None,31209,12.612409591674805,0,-6,0,0,2,0,-1,-1,1756998785747784852
0,2.425309896,20250904111305748,None,31209,12.612409591674805,1,2,-2,-1,-2,0,-3,-1,1756998785748013257
0,2.440151691,20250904111305763,None,31209,6.425189971923828,0,-3,-1,-1,0,0,-4,-1,1756998785762583494
0,2.440454006,20250904111305763,None,31209,6.425189971923828,-2,4,2,2,0,1,-1,-2,1756998785762783765
0,2.447475433,20250904111305770,None,31209,14.75413990020752,-1,-3,0,-1,0,0,1,-1,1756998785770041942
0,2.447586059,20250904111305770,None,31209,14.75413990020752,1,-3,1,-1,-2,-1,-2,-2,1756998785770265340
0,2.455052614,20250904111305777,None,31209,5.949249744415283,1,0,1,1,-4,-2,-3,0,1756998785777652502
0,2.455143213,20250904111305778,None,31209,5.949249744415283,-2,0,-1,-3,0,-1,1,-2,1756998785777859210
0,2.470502138,20250904111305793,None,31209,7.37706995010376,-2,-1,-6,0,-1,-6,-6,-1,1756998785792772769
0,2.4707551,20250904111305793,None,31209,7.37706995010376,-1,-3,-6,-2,-3,3,9,-1,1756998785793058156
0,2.4780530929999998,20250904111305800,None,31209,12.374439239501953,-1,2,3,0,3,3,1,0,1756998785800127267
0,2.478252649,20250904111305801,None,31209,12.374439239501953,3,-1,-4,-3,1,-2,-2,1,1756998785800367593
0,2.484862328,20250904111305807,None,31209,12.374439239501953,1,4,1,2,-1,-1,1,-2,1756998785807349205
0,2.485013008,20250904111305807,None,31209,12.374439239501953,-1,1,2,0,2,0,-3,2,1756998785807483196
0,2.500025034,20250904111305822,None,31209,10.232709884643555,-1,-7,-1,-1,0,1,-1,2,1756998785822351694
0,2.500231743,20250904111305823,None,31209,10.232709884643555,-1,2,-1,-1,0,-3,-1,-3,1756998785822483062
0,2.507644653,20250904111305830,None,31209,12.612409591674805,0,0,0,1,0,-1,-2,-1,1756998785829892158
0,2.507891655,20250904111305830,None,31209,12.612409591674805,-1,2,1,-1,0,-2,2,2,1756998785830044507
0,2.514751673,20250904111305837,None,31209,12.612409591674805,-1,2,-4,2,-1,-1,-1,1,1756998785837373495
0,2.514864921,20250904111305837,None,31209,12.612409591674805,0,-4,-4,0,-1,0,-3,-5,1756998785837510347
0,2.5298788549999998,20250904111305852,None,31209,14.278200149536133,2,1,3,0,2,-1,-2,-1,1756998785852406501
0,2.53003335,20250904111305852,None,31209,14.278200149536133,-5,-2,-1,-1,-1,-1,2,0,1756998785852553844
0,2.537234306,20250904111305860,None,31209,6.187219619750977,-4,-6,0,-7,-1,-2,-2,-2,1756998785859828948
0,2.53744936,20250904111305860,None,31209,6.187219619750977,-1,0,0,-3,1,0,2,0,1756998785859977722
0,2.552238226,20250904111305875,None,31209,14.992109298706055,-2,3,1,-3,-1,-4,-8,-1,1756998785874854564
0,2.5524587629999997,20250904111305875,None,31209,6.6631598472595215,0,0,-2,-2,-5,0,-4,-1,1756998785874980688
0,2.559786796,20250904111305882,None,31209,6.6631598472595215,-2,-1,1,-2,-1,1,1,-2,1756998785882404088
0,2.559885979,20250904111305882,None,31209,6.6631598472595215,1,0,-1,1,3,-3,-2,-1,1756998785882596969
0,2.5672450060000003,20250904111305890,None,31209,13.088349342346191,2,-1,2,-4,-1,-3,-2,1,1756998785889863729
0,2.567397118,20250904111305890,None,31209,13.088349342346191,1,0,1,-1,0,-4,-6,-1,1756998785890014648
0,2.58228445,20250904111305905,None,31209,10.232709884643555,0,3,0,-2,-1,0,4,-1,1756998785904851198
0,2.582447767,20250904111305905,None,31209,10.232709884643555,0,-1,0,4,0,0,1,-2,1756998785904976367
0,2.589717388,20250904111305912,None,31209,11.898499488830566,-4,-4,-2,-1,-2,0,-1,1,1756998785912408828
0,2.589814901,20250904111305912,None,31209,11.898499488830566,-2,-3,-2,-2,0,0,-3,0,1756998785912524223
0,2.597316503,20250904111305920,None,31209,11.898499488830566,-1,3,-4,0,0,-4,-5,-2,1756998785919928073
0,2.597437382,20250904111305920,None,31209,11.898499488830566,-1,0,-1,-2,-2,-3,-1,-2,1756998785920060634
0,2.612834215,20250904111305935,None,31209,14.75413990020752,1,-5,0,-1,-1,-1,0,2,1756998785935419321
0,2.612975597,20250904111305935,None,31209,14.75413990020752,-2,-1,0,2,-2,-2,-2,-2,1756998785935602903
0,2.61973238,20250904111305942,None,31209,6.187219619750977,-2,-3,0,-1,0,-1,-2,-2,1756998785942333936
0,2.619857073,20250904111305942,None,31209,6.187219619750977,0,-4,-3,-4,2,2,-1,-3,1756998785942475557
0,2.627252579,20250904111305950,None,31209,14.992109298706055,4,3,1,-1,-3,0,-1,0,1756998785949853658
0,2.627368927,20250904111305950,None,31209,14.992109298706055,-1,7,0,-1,-1,-2,-5,0,1756998785949984073
0,2.642324924,20250904111305965,None,31209,6.6631598472595215,0,-8,-1,1,-2,-5,-4,1,1756998785964928150
0,2.6425070760000002,20250904111305965,None,31209,6.6631598472595215,-2,-4,-4,1,0,0,3,-4,1756998785965087890
0,2.649723291,20250904111305972,None,31209,13.326319694519043,1,3,-3,0,1,2,0,0,1756998785972407579
0,2.649817228,20250904111305972,None,31209,13.326319694519043,2,3,2,1,2,3,-3,1,1756998785972530841
0,2.657121658,20250904111305979,None,31209,8.804889678955078,0,1,-1,-5,-2,-2,-2,1,1756998785979784011
0,2.65721178,20250904111305980,None,31209,8.804889678955078,-2,-3,2,-1,-1,-2,-2,0,1756998785979915618
0,2.672109365,20250904111305994,None,31209,10.946619987487793,-2,-1,-1,-4,-2,-3,2,-2,1756998785994706392
0,2.672232151,20250904111305995,None,31209,10.946619987487793,0,-4,-4,2,0,0,-1,0,1756998785994831562
0,2.679709196,20250904111306002,None,31209,11.42255973815918,-1,0,0,0,-3,-1,1,-1,1756998786002253293
0,2.679992199,20250904111306002,None,31209,11.42255973815918,-4,0,2,2,-2,-3,-2,-5,1756998786002398729
0,2.687092543,20250904111306009,None,31209,8.09097957611084,-2,0,-2,0,1,1,3,2,1756998786009711980
0,2.687230825,20250904111306010,None,31209,8.09097957611084,2,1,0,2,2,0,-2,4,1756998786009835958
0,2.702214003,20250904111306025,None,31209,6.187219619750977,-1,-3,0,0,1,-1,-4,-1,1756998786024812221
0,2.702335119,20250904111306025,None,31209,6.187219619750977,0,1,1,-1,-1,-3,-1,1,1756998786024971485
0,2.709583759,20250904111306032,None,31209,14.992109298706055,2,-2,-4,-1,-2,-4,-3,0,1756998786032270669
0,2.709691524,20250904111306032,None,31209,14.992109298706055,1,-4,0,-1,-3,2,0,-2,1756998786032399415
0,2.717057943,20250904111306039,None,31209,14.992109298706055,0,2,-2,-2,-4,0,2,-1,1756998786039735794
0,2.717153311,20250904111306040,None,31209,14.992109298706055,-3,-8,1,1,-2,-1,3,-1,1756998786039856910
0,2.73217082,20250904111306055,None,31209,14.040229797363281,-2,-7,-1,-1,0,0,0,1,1756998786054763555
0,2.732301712,20250904111306055,None,31209,14.040229797363281,-1,2,-1,0,-2,-2,1,0,1756998786054910659
0,2.739553928,20250904111306062,None,31209,8.804889678955078,1,2,-3,-1,-2,-2,-4,-1,1756998786062183141
0,2.739646673,20250904111306062,None,31209,8.804889678955078,1,7,2,-5,-2,1,2,0,1756998786062325954
0,2.747047663,20250904111306069,None,31209,11.42255973815918,-3,-8,0,-1,-1,0,-1,0,1756998786069704532
0,2.747137308,20250904111306069,None,31209,11.42255973815918,-2,-3,2,1,4,2,-1,-5,1756998786069833278
0,2.762232304,20250904111306085,None,31209,10.708649635314941,-1,-2,-1,0,1,-2,2,-4,1756998786084808111
0,2.762430191,20250904111306085,None,31209,10.708649635314941,0,1,0,0,-1,-2,-2,0,1756998786085000276
0,2.769908905,20250904111306092,None,31209,8.804889678955078,1,3,0,-2,0,-3,0,1,1756998786092442035
0,2.770065546,20250904111306092,None,31209,8.804889678955078,-2,-1,0,1,0,-3,-1,0,1756998786092613935
0,2.777091741,20250904111306099,None,31209,14.040229797363281,1,-2,-3,0,-3,-1,-1,-1,1756998786099739551
0,2.77717495,20250904111306100,None,31209,14.040229797363281,1,-3,2,-3,-2,-1,1,0,1756998786099897861
0,2.7922649379999998,20250904111306115,None,31209,6.425189971923828,3,2,1,2,-2,-4,-2,-1,1756998786114841699
0,2.792413711,20250904111306115,None,31209,6.425189971923828,1,-1,-3,-4,-2,-2,-8,-4,1756998786115008592
0,2.79964304,20250904111306122,None,31209,14.75413990020752,1,0,-3,0,-2,5,6,2,1756998786122300863
0,2.799748659,20250904111306122,None,31209,14.75413990020752,-2,-1,0,-2,-2,-2,4,0,1756998786122437715
0,2.807080746,20250904111306129,None,31209,6.187219619750977,0,-2,-1,-3,-2,2,1,0,1756998786129762887
0,2.807146788,20250904111306130,None,31209,6.187219619750977,-3,-5,-1,3,0,0,-2,-1,1756998786129871606
0,2.822234154,20250904111306145,None,31209,7.8530097007751465,-3,-1,1,1,-6,-1,-1,-5,1756998786144837617
0,2.822366238,20250904111306145,None,31209,7.8530097007751465,3,-1,-5,-1,-3,0,-2,-5,1756998786144988298
0,2.829743624,20250904111306152,None,31209,7.8530097007751465,0,1,-2,1,0,0,1,2,1756998786152400970
0,2.829988241,20250904111306152,None,31209,7.8530097007751465,-3,6,-1,-1,-1,-1,-1,-1,1756998786152522802
0,2.837229729,20250904111306160,None,31209,11.660530090332031,-4,-7,-1,-1,-1,2,1,-2,1756998786159854412
0,2.837351322,20250904111306160,None,31209,11.660530090332031,-2,-2,-3,-4,-5,2,-1,0,1756998786159996747
0,2.85222578,20250904111306175,None,31209,8.804889678955078,3,4,4,-4,-1,-1,-1,-1,1756998786174849510
0,2.852468967,20250904111306175,None,31209,8.804889678955078,1,2,0,-3,-1,2,1,0,1756998786174978971
0,2.859814644,20250904111306182,None,31209,13.326319694519043,-4,-8,-1,-2,0,0,-2,-1,1756998786182380437
0,2.8599898809999997,20250904111306182,None,31209,13.326319694519043,-2,-4,-5,1,-1,-2,0,0,1756998786182500600
0,2.874941349,20250904111306197,None,31209,6.187219619750977,0,-1,-2,1,-1,-5,-4,-3,1756998786197437286
0,2.875132084,20250904111306197,None,31209,6.187219619750977,0,2,-2,1,1,1,-1,2,1756998786197679758
0,2.882254124,20250904111306205,None,31209,14.516169548034668,-1,0,1,-2,-1,-2,2,0,1756998786204865694
0,2.882408619,20250904111306205,None,31209,14.516169548034668,-4,-4,-1,-1,-2,1,-3,-3,1756998786205003023
0,2.890054464,20250904111306212,None,31209,5.71127986907959,-4,-5,-4,-4,-1,-1,-2,1,1756998786212651729
0,2.890149593,20250904111306213,None,31209,5.71127986907959,-3,1,1,-1,1,-1,-1,-1,1756998786212858915
0,2.897498131,20250904111306220,None,31209,14.040229797363281,-1,-1,0,-2,-3,-1,1,-2,1756998786220092773
0,2.89800477,20250904111306220,None,31209,14.040229797363281,-1,-2,-1,1,-1,1,-4,-2,1756998786220487117
0,2.91242671,20250904111306235,None,31209,6.425189971923828,-3,-3,1,0,0,1,-1,-1,1756998786234966039
0,2.912940502,20250904111306235,None,31209,11.660530090332031,-1,-2,0,1,-1,-1,0,-2,1756998786235165119
0,2.920219898,20250904111306243,None,31209,11.660530090332031,1,-2,1,-3,2,-2,2,1,1756998786242443323
0,2.920440674,20250904111306243,None,31209,11.660530090332031,-4,-3,1,-2,0,1,1,0,1756998786242614984
0,2.92759943,20250904111306250,None,31209,9.518799781799316,-4,-3,0,-4,1,0,-2,-2,1756998786249937772
0,2.927795649,20250904111306250,None,31209,9.518799781799316,-1,-1,0,-1,1,-3,0,-2,1756998786250116348
0,2.942535639,20250904111306265,None,31209,12.612409591674805,-2,-4,-3,-1,-3,2,1,0,1756998786265050649
0,2.942708969,20250904111306265,None,31209,12.612409591674805,-3,5,-1,2,0,0,-1,0,1756998786265278100
0,2.949686527,20250904111306272,None,31209,5.949249744415283,-1,-4,-3,0,-5,1,-3,-1,1756998786272341966
0,2.949776173,20250904111306272,None,31209,5.949249744415283,1,-4,-1,1,0,0,3,-2,1756998786272471904
0,2.95710206,20250904111306279,None,31209,5.949249744415283,2,0,-2,-3,0,-4,0,1,1756998786279687643
0,2.957188129,20250904111306280,None,31209,5.949249744415283,-2,7,2,3,3,-1,-2,0,1756998786279800891
0,2.972221851,20250904111306295,None,31209,5.4733099937438965,-2,-10,-4,-5,-3,-1,-2,0,1756998786294775485
0,2.972352028,20250904111306295,None,31209,5.4733099937438965,-2,-5,0,-4,0,-1,-1,-1,1756998786294943332
0,2.979772568,20250904111306302,None,31209,14.040229797363281,-2,1,0,-2,-1,0,-3,-2,1756998786302361965
0,2.979914188,20250904111306302,None,31209,14.040229797363281,-1,0,-3,-1,-1,0,-4,-3,1756998786302480220
0,2.987279892,20250904111306310,None,31209,6.425189971923828,-4,-2,1,-1,-1,-1,-1,-2,1756998786309828281
0,2.987565279,20250904111306310,None,31209,6.425189971923828,-1,-1,-2,-1,-3,-1,-1,1,1756998786309946060
0,3.002225637,20250904111306325,None,31209,12.136469841003418,1,0,-2,0,-3,-1,2,-3,1756998786324833631
0,3.002371073,20250904111306325,None,31209,12.136469841003418,-2,-3,-1,0,1,2,0,0,1756998786324949979
0,3.009721994,20250904111306332,None,31209,9.280829429626465,-1,0,4,-6,0,0,1,1,1756998786332367658
0,3.009835005,20250904111306332,None,31209,9.280829429626465,2,1,-1,-2,-1,-3,-3,-3,1756998786332486152
0,3.017158508,20250904111306340,None,31209,9.756770133972168,-2,-4,-1,-4,-2,-1,2,-5,1756998786339811325
0,3.017272234,20250904111306340,None,31209,9.756770133972168,-2,-2,-1,0,-2,-3,-3,1,1756998786339950323
0,3.032146692,20250904111306355,None,31209,6.425189971923828,0,-2,-2,-3,1,1,1,2,1756998786354788541
0,3.032263517,20250904111306355,None,31209,6.425189971923828,-3,2,-2,-1,0,-3,-8,0,1756998786354912757
0,3.039726019,20250904111306362,None,31209,6.425189971923828,-1,-2,2,0,0,4,7,2,1756998786362384080
0,3.039835691,20250904111306362,None,31209,6.425189971923828,1,0,0,-1,1,0,0,0,1756998786362495422
0,3.054582834,20250904111306377,None,31209,5.235340118408203,1,1,-3,-1,-1,-1,-2,0,1756998786377243280
0,3.054694176,20250904111306377,None,31209,5.235340118408203,-1,-6,-1,-2,0,-1,-4,1,1756998786377359151
0,3.062160015,20250904111306385,None,31209,14.040229797363281,0,-3,0,0,0,0,-1,0,1756998786384828090
0,3.062281847,20250904111306385,None,31209,14.040229797363281,1,2,-4,-4,-3,-3,1,-2,1756998786384941339
0,3.069792032,20250904111306392,None,31209,5.949249744415283,-3,1,2,-4,-4,-2,1,-1,1756998786392341136
0,3.070050239,20250904111306392,None,31209,5.949249744415283,-2,-6,-1,3,-1,-4,-5,-2,1756998786392453670
0,3.077133417,20250904111306399,None,31209,5.949249744415283,0,0,-1,0,-1,0,-1,-3,1756998786399770975
0,3.077257156,20250904111306400,None,31209,5.949249744415283,1,-1,1,-3,-5,-5,-2,0,1756998786399879932
0,3.092410088,20250904111306415,None,31209,8.328949928283691,-3,-4,0,-1,-3,-2,-3,0,1756998786414956331
0,3.092575788,20250904111306415,None,31209,8.328949928283691,1,2,-1,1,0,-3,0,-3,1756998786415141105
0,3.099873543,20250904111306422,None,31209,9.994739532470703,-1,0,-1,0,0,-2,-1,1,1756998786422461509
0,3.0999953749999998,20250904111306422,None,31209,9.994739532470703,2,-2,-2,-3,2,-1,-4,-1,1756998786422665357
0,3.107573986,20250904111306430,None,31209,11.42255973815918,-2,0,-1,1,1,-5,-6,0,1756998786430133819
0,3.107745886,20250904111306430,None,31209,11.42255973815918,1,2,-3,-3,0,4,9,2,1756998786430375099
0,3.122564077,20250904111306445,None,31209,6.901129722595215,0,-1,0,1,-1,0,-1,1,1756998786445128679
0,3.122685671,20250904111306445,None,31209,6.901129722595215,-2,-3,-1,-2,-4,-3,-2,-4,1756998786445357799
0,3.130051613,20250904111306452,None,31209,13.80225944519043,-1,0,-3,-2,0,-2,-4,-4,1756998786452675342
0,3.130162954,20250904111306453,None,31209,13.80225944519043,-2,0,-4,-2,1,-3,-1,0,1756998786452862024
0,3.137607098,20250904111306460,None,31209,5.4733099937438965,-2,-2,-3,-1,-3,-4,-2,0,1756998786460184812
0,3.137748718,20250904111306460,None,31209,5.4733099937438965,-3,3,1,2,-2,-2,-3,1,1756998786460421800
0,3.152539253,20250904111306475,None,31209,5.4733099937438965,2,-3,-3,-1,1,2,0,0,1756998786475072860
0,3.152673006,20250904111306475,None,31209,5.4733099937438965,-1,-3,-1,-2,-1,-1,-1,-4,1756998786475276708
0,3.160033226,20250904111306482,None,31209,5.4733099937438965,1,-1,2,0,-2,-3,-3,0,1756998786482624769
0,3.160129309,20250904111306482,None,31209,5.4733099937438965,0,4,-1,-1,-3,-1,-2,-1,1756998786482818841
0,3.167528152,20250904111306490,None,31209,12.850379943847656,-3,-3,-1,0,-1,1,-2,0,1756998786490106105
0,3.167827129,20250904111306490,None,31209,12.850379943847656,0,-2,1,1,0,0,-1,-1,1756998786490484476
0,3.18255949,20250904111306505,None,31209,9.994739532470703,2,5,3,0,0,2,-4,0,1756998786505003213
0,3.182674169,20250904111306505,None,31209,9.994739532470703,-2,-3,-2,2,0,1,-2,-3,1756998786505200624
0,3.190427303,20250904111306513,None,31209,10.232709884643555,-3,-4,-1,-3,0,0,2,-1,1756998786512505769
0,3.190658569,20250904111306513,None,31209,10.232709884643555,1,0,2,0,-1,-2,-6,1,1756998786512686729
0,3.197796822,20250904111306520,None,31209,10.232709884643555,-4,-2,-6,0,-1,3,7,1,1756998786519924879
0,3.198018312,20250904111306520,None,31209,10.232709884643555,3,-1,0,4,-1,-1,2,1,1756998786520119190
0,3.212831736,20250904111306535,None,31209,13.326319694519043,-4,1,3,-2,-3,2,-2,-2,1756998786534965038
0,3.213128805,20250904111306535,None,31209,13.326319694519043,0,1,-3,-1,-1,-3,-1,-1,1756998786535160303
0,3.219785213,20250904111306542,None,31209,4.997369766235352,0,-2,1,0,-1,-2,1,-2,1756998786542217969
0,3.219932794,20250904111306542,None,31209,4.997369766235352,0,-2,-2,-1,-1,-1,-3,-2,1756998786542395353
0,3.227613211,20250904111306550,None,31209,13.80225944519043,-2,2,-1,-2,0,0,-2,-1,1756998786549691438
0,3.22783947,20250904111306550,None,31209,13.80225944519043,-5,0,-1,0,-4,-1,-2,-1,1756998786549803495
0,3.242732763,20250904111306565,None,31209,4.997369766235352,-1,-3,-2,-1,-1,0,1,-2,1756998786565033435
0,3.242863893,20250904111306565,None,31209,4.997369766235352,1,-1,1,-2,-2,0,-2,-1,1756998786565193176
0,3.249613047,20250904111306572,None,31209,12.850379943847656,-3,2,-1,0,1,0,3,1,1756998786572268009
0,3.249731541,20250904111306572,None,31209,12.850379943847656,0,-2,0,-1,0,-1,-2,-2,1756998786572432756
0,3.25702548,20250904111306579,None,31209,7.139100074768066,-1,-3,1,-1,0,-4,-2,0,1756998786579693794
0,3.257118225,20250904111306579,None,31209,7.139100074768066,-2,2,-1,2,-2,0,-2,-2,1756998786579814910
0,3.272260904,20250904111306595,None,31209,10.708649635314941,0,0,0,0,0,-2,-4,1,1756998786594874620
0,3.2723722459999998,20250904111306595,None,31209,10.708649635314941,1,-1,1,-2,-3,-6,-4,-2,1756998786595010995
0,3.279577255,20250904111306602,None,31209,9.756770133972168,-1,1,1,-2,-1,4,9,0,1756998786602262735
0,3.279660463,20250904111306602,None,31209,9.756770133972168,-2,-6,1,-3,-3,-2,-1,0,1756998786602374076
0,3.287105083,20250904111306609,None,31209,7.37706995010376,-1,-3,-1,-1,-2,-1,-3,-2,1756998786609735488
0,3.28721714,20250904111306610,None,31209,7.37706995010376,0,3,-1,1,0,-3,-2,1,1756998786609855651
0,3.302168131,20250904111306625,None,31209,4.997369766235352,0,-2,-1,0,-2,-3,-1,1,1756998786624644756
0,3.302342653,20250904111306625,None,31209,4.997369766235352,-2,1,0,-5,2,0,-3,0,1756998786624764204
0,3.309661388,20250904111306632,None,31209,13.326319694519043,-2,1,1,-2,0,2,-1,-1,1756998786632200717
0,3.309791326,20250904111306632,None,31209,13.326319694519043,-1,4,1,2,-1,0,0,0,1756998786632345676
0,3.317498922,20250904111306640,None,31209,13.326319694519043,1,-4,-1,0,-2,-3,-1,-2,1756998786639757394
0,3.317737341,20250904111306640,None,31209,13.326319694519043,-1,-6,1,-2,0,-1,-3,-3,1756998786639888286
0,3.3320932389999998,20250904111306654,None,31209,12.850379943847656,-3,-2,-1,1,2,1,-2,-1,1756998786654697656
0,3.332237005,20250904111306655,None,31209,12.850379943847656,1,0,1,-2,-1,-4,-2,1,1756998786654805183
0,3.3396916389999998,20250904111306662,None,31209,6.6631598472595215,1,-3,0,-2,-1,-2,3,-2,1756998786662292242
0,3.339819193,20250904111306662,None,31209,6.6631598472595215,-2,-3,-2,-1,-2,-2,0,-5,1756998786662418842
0,3.347114086,20250904111306669,None,31209,10.708649635314941,-1,2,-2,2,-1,-1,-3,0,1756998786669768333
0,3.347232103,20250904111306670,None,31209,10.708649635314941,-2,1,0,-1,-3,-3,-9,-5,1756998786669920444
0,3.36242795,20250904111306685,None,31209,9.04286003112793,-1,-3,0,0,0,4,5,0,1756998786684709787
0,3.362984419,20250904111306685,None,31209,9.04286003112793,1,5,-1,0,1,0,5,-1,1756998786684841871
0,3.369844675,20250904111306692,None,31209,8.09097957611084,0,0,2,-2,0,-2,-1,-1,1756998786692245483
0,3.370025635,20250904111306692,None,31209,8.09097957611084,3,-3,-1,-1,-3,0,0,0,1756998786692376613
0,3.377331734,20250904111306700,None,31209,11.898499488830566,2,9,-1,-1,-3,-3,-4,1,1756998786699725151
0,3.377553224,20250904111306700,None,31209,11.898499488830566,-4,-8,-3,-3,-5,0,0,-2,1756998786699839830
0,3.392481327,20250904111306715,None,31209,13.564290046691895,-1,-4,1,1,2,-1,-2,0,1756998786714766263
0,3.392659426,20250904111306715,None,31209,13.564290046691895,0,1,0,0,-3,-2,-4,-2,1756998786714894056
0,3.399831533,20250904111306722,None,31209,13.564290046691895,1,-1,-3,1,1,1,2,-2,1756998786722217559
0,3.4000594619999998,20250904111306723,None,31209,13.564290046691895,0,3,0,0,-3,-3,-2,-1,1756998786722355365
0,3.407362699,20250904111306730,None,31209,4.521430015563965,-1,0,-1,-1,-4,-3,1,1,1756998786729744195
0,3.407634497,20250904111306730,None,31209,4.521430015563965,-1,-2,-3,-1,0,-2,-3,-2,1756998786729871988
0,3.422440767,20250904111306745,None,31209,5.71127986907959,0,1,-3,-2,2,-1,1,-2,1756998786744756221
0,3.422610044,20250904111306745,None,31209,5.71127986907959,-2,0,-1,-1,-1,1,0,0,1756998786744904518
0,3.42977643,20250904111306752,None,31209,10.708649635314941,0,-5,-3,0,-1,1,-1,1,1756998786752271175
0,3.429955482,20250904111306752,None,31209,10.708649635314941,0,2,-4,-1,-1,-3,-4,-1,1756998786752382993
0,3.444833994,20250904111306767,None,31209,8.566919326782227,-1,-1,0,-1,-1,1,-4,0,1756998786767315626
0,3.445065975,20250904111306767,None,31209,8.566919326782227,2,-1,-2,-4,0,1,3,-2,1756998786767476081
0,3.452124596,20250904111306774,None,31209,8.566919326782227,-3,4,-3,1,0,-4,-4,-3,1756998786774768352
0,3.452233791,20250904111306775,None,31209,8.566919326782227,-1,1,-1,-1,0,-1,0,1,1756998786774903774
0,3.459566116,20250904111306782,None,31209,11.42255973815918,0,-3,-2,-1,-3,-4,-3,-1,1756998786782248020
0,3.45964241,20250904111306782,None,31209,11.42255973815918,0,-1,0,-2,1,2,-7,-1,1756998786782361745
0,3.474699259,20250904111306797,None,31209,5.4733099937438965,-3,0,1,-4,3,-2,-5,-2,1756998786797318935
0,3.474805832,20250904111306797,None,31209,5.4733099937438965,-1,-1,-2,1,-1,0,7,2,1756998786797476768
0,3.482146025,20250904111306805,None,31209,13.326319694519043,0,3,-1,-4,-2,-1,2,1,1756998786804754972
0,3.482750177,20250904111306805,None,31209,13.326319694519043,-1,1,-2,1,-2,0,-3,-1,1756998786804883480
0,3.489732027,20250904111306812,None,31209,4.759399890899658,-4,-7,-3,-1,-1,-3,-2,-3,1756998786812294244
0,3.489913225,20250904111306812,None,31209,4.759399890899658,-1,-3,1,2,-2,-1,-3,-3,1756998786812447786
0,3.50464201,20250904111306827,None,31209,5.71127986907959,-1,1,0,-1,-1,-2,0,-4,1756998786827258586
0,3.5051918029999998,20250904111306828,None,31209,5.71127986907959,1,-5,-1,-3,-1,-2,-3,-1,1756998786827404737
0,3.512682676,20250904111306835,None,31209,12.136469841003418,1,0,-2,-3,-2,-1,-3,-5,1756998786834771156
0,3.51295495,20250904111306835,None,31209,12.136469841003418,3,2,2,1,-1,-1,-2,0,1756998786834906578
0,3.519928694,20250904111306842,None,31209,12.136469841003418,-1,0,1,1,1,-5,-6,1,1756998786842199325
0,3.5201506609999997,20250904111306843,None,31209,12.136469841003418,-2,-5,-2,-3,3,3,5,0,1756998786842335462
0,3.535150051,20250904111306858,None,31209,9.280829429626465,0,2,-4,-1,3,-1,-4,-2,1756998786857319116
0,3.535417557,20250904111306858,None,31209,9.280829429626465,0,-1,0,-3,-2,0,-1,-1,1756998786857446193
0,3.542666912,20250904111306865,None,31209,11.184589385986328,1,1,1,0,-1,-1,0,0,1756998786864816188
0,3.542938232,20250904111306865,None,31209,11.184589385986328,-1,-5,-1,-3,0,0,0,-2,1756998786864946126
0,3.550050974,20250904111306872,None,31209,6.187219619750977,-4,-2,-2,-1,0,-2,0,-1,1756998786872292518
0,3.550266504,20250904111306873,None,31209,6.187219619750977,-2,-2,-2,-1,0,-2,-2,-2,1756998786872412681
0,3.565119266,20250904111306888,None,31209,13.564290046691895,4,-4,1,1,-3,-1,-1,0,1756998786887282848
0,3.565359354,20250904111306888,None,31209,13.564290046691895,0,-1,-1,-6,-1,-1,-1,-1,1756998786887411117
0,3.5726330280000003,20250904111306895,None,31209,4.997369766235352,0,0,-4,1,-2,0,-4,0,1756998786894764184
0,3.572958946,20250904111306895,None,31209,4.997369766235352,0,0,-1,2,0,2,-2,-1,1756998786894887447
0,3.58010745,20250904111306903,None,31209,13.80225944519043,0,1,1,0,-3,-4,-1,2,1756998786902308940
0,3.580362558,20250904111306903,None,31209,13.80225944519043,2,-2,-2,0,-2,-3,1,-1,1756998786902439594
0,3.595084667,20250904111306917,None,31209,5.4733099937438965,-1,6,2,-3,-3,-1,1,-1,1756998786917281389
0,3.595303059,20250904111306918,None,31209,5.4733099937438965,-5,-12,2,-2,2,1,-3,0,1756998786917416334
0,3.602636099,20250904111306925,None,31209,12.136469841003418,-2,-7,-2,-1,-1,-3,-6,-3,1756998786924775838
0,3.602877378,20250904111306925,None,31209,12.136469841003418,3,-1,-1,0,-2,4,4,1,1756998786924895286
0,3.609999895,20250904111306932,None,31209,8.09097957611084,0,-1,-1,1,-1,2,1,-1,1756998786932236194
0,3.610274315,20250904111306933,None,31209,8.09097957611084,-2,4,0,-2,-1,-4,-1,-1,1756998786932339668
0,3.625024557,20250904111306947,None,31209,10.946619987487793,0,1,-1,0,-1,-2,0,-4,1756998786947295188
0,3.6252620220000003,20250904111306948,None,31209,10.946619987487793,-3,-6,-1,-1,-1,-1,-1,-1,1756998786947474718
0,3.632272005,20250904111306955,None,31209,10.946619987487793,-4,1,0,2,4,-1,0,0,1756998786954752922
0,3.632442236,20250904111306955,None,31209,10.946619987487793,0,-4,0,-5,-1,0,-2,-2,1756998786954897880
0,3.639858246,20250904111306962,None,31209,6.901129722595215,-2,-1,-3,-2,-1,2,-1,0,1756998786962304592
0,3.640049934,20250904111306962,None,31209,6.901129722595215,2,0,1,-2,-2,-3,-2,-2,1756998786962476968
0,3.654857159,20250904111306977,None,31209,4.997369766235352,0,1,0,0,0,0,-1,-1,1756998786977267026
0,3.655071974,20250904111306977,None,31209,4.997369766235352,-4,-2,0,2,1,0,-1,-1,1756998786977428436
0,3.662253857,20250904111306985,None,31209,14.040229797363281,-2,-3,1,-2,-4,2,-3,-1,1756998786984748363
0,3.662560701,20250904111306985,None,31209,14.040229797363281,0,-1,-2,1,2,-4,-1,1,1756998786984858989
0,3.669785499,20250904111306992,None,31209,5.4733099937438965,2,0,3,5,-1,-1,-1,-3,1756998786992263793
0,3.6699833870000003,20250904111306992,None,31209,5.4733099937438965,-1,-1,-4,-5,-2,-4,-6,-5,1756998786992378473
0,3.684893608,20250904111307007,None,31209,13.088349342346191,-1,-3,1,-1,1,6,4,1,1756998787007321834
0,3.685117721,20250904111307007,None,31209,13.088349342346191,-2,-2,0,-2,-3,1,1,-3,1756998787007473468
0,3.692354679,20250904111307015,None,31209,8.09097957611084,1,-1,1,-6,-2,-2,-2,0,1756998787014774322
0,3.692707539,20250904111307015,None,31209,8.09097957611084,2,1,1,-2,-2,-1,1,2,1756998787014912843
0,3.699723482,20250904111307022,None,31209,10.708649635314941,2,4,0,1,1,-3,0,-1,1756998787022203207
0,3.699893713,20250904111307022,None,31209,10.708649635314941,-6,-5,2,2,0,-1,-3,-3,1756998787022325038
0,3.714808464,20250904111307037,None,31209,10.232709884643555,-3,-10,-4,-2,-5,1,2,0,1756998787037276506
0,3.7150530809999998,20250904111307037,None,31209,8.09097957611084,0,4,-1,-2,-1,0,0,-1,1756998787037403106
0,3.722360611,20250904111307045,None,31209,8.09097957611084,-1,1,-2,1,0,0,0,-4,1756998787044801473
0,3.722666502,20250904111307045,None,31209,8.09097957611084,1,-1,-3,-1,0,-1,-2,0,1756998787044932842
0,3.729840755,20250904111307052,None,31209,13.326319694519043,2,-1,-1,0,-3,2,-3,-2,1756998787052284002
0,3.730082035,20250904111307052,None,31209,13.326319694519043,-1,-1,-2,-1,-3,-1,-3,1,1756998787052416563
0,3.753109932,20250904111307075,None,31209,5.4733099937438965,1,-1,1,-4,2,0,1,0,1756998787075520992
0,3.753332138,20250904111307076,None,31209,5.4733099937438965,-2,0,1,-1,-1,1,-3,0,1756998787075703620
0,3.753605843,20250904111307076,None,31209,5.4733099937438965,1,0,-1,-2,-3,-3,1,-2,1756998787076179742
0,3.753751516,20250904111307076,None,31209,5.4733099937438965,3,0,2,2,0,1,1,0,1756998787076249122
0,3.7598090170000003,20250904111307082,None,31209,5.4733099937438965,-1,-2,0,0,-1,-3,-5,0,1756998787082277297
0,3.760031462,20250904111307082,None,31209,13.564290046691895,-1,-2,1,-2,-1,-7,-5,-3,1756998787082427501
0,3.77494359,20250904111307097,None,31209,7.37706995010376,1,1,-2,0,1,4,4,-1,1756998787097363233
0,3.775157928,20250904111307098,None,31209,7.37706995010376,-3,-4,-1,-2,-2,1,-1,-3,1756998787097524881
0,3.782324552,20250904111307105,None,31209,10.708649635314941,-1,-1,-3,0,-2,0,1,0,1756998787104772567
0,3.782568216,20250904111307105,None,31209,10.708649635314941,0,2,-1,-2,0,-1,-2,-1,1756998787104902505
0,3.789824009,20250904111307112,None,31209,9.994739532470703,-1,1,0,-2,-4,-5,-3,-2,1756998787112290620
0,3.790018558,20250904111307112,None,31209,9.994739532470703,1,1,2,0,0,-3,-2,-2,1756998787112425327
0,3.8048849110000003,20250904111307127,None,31209,7.8530097007751465,-2,-1,-3,-2,0,-1,1,-1,1756998787127324581
0,3.805130958,20250904111307128,None,31209,7.8530097007751465,-1,-1,1,-1,-2,-2,-2,-1,1756998787127490282
0,3.81255722,20250904111307135,None,31209,12.612409591674805,-2,0,0,-1,-2,1,1,-1,1756998787134732007
0,3.812777281,20250904111307135,None,31209,12.612409591674805,1,7,-4,1,-3,-2,1,-1,1756998787134856700
0,3.827471018,20250904111307150,None,31209,14.040229797363281,-6,-10,-4,-1,0,-3,-3,0,1756998787149814367
0,3.827698946,20250904111307150,None,31209,14.040229797363281,1,-1,-3,-4,2,-1,-3,-1,1756998787149966955
0,3.835007667,20250904111307157,None,31209,5.4733099937438965,1,2,2,0,-1,1,-1,-1,1756998787157256841
0,3.835226536,20250904111307158,None,31209,5.4733099937438965,-2,-3,-1,0,2,-2,-1,-1,1756998787157384395
0,3.842358112,20250904111307165,None,31209,5.4733099937438965,0,1,-1,2,-1,-7,-5,-3,1756998787164759874
0,3.842721939,20250904111307165,None,31209,5.4733099937438965,-1,0,0,0,0,3,4,0,1756998787164910793
0,3.849892139,20250904111307172,None,31209,14.040229797363281,-1,-6,-4,2,-2,-1,-3,-3,1756998787172288656
0,3.850110531,20250904111307172,None,31209,14.040229797363281,-3,-1,2,-4,-5,-3,-1,0,1756998787172404527
0,3.865320444,20250904111307188,None,31209,11.42255973815918,0,0,-1,0,-1,0,0,-1,1756998787187767267
0,3.865550041,20250904111307188,None,31209,11.42255973815918,-1,1,-2,-4,-1,0,-1,1,1756998787187913894
0,3.872245312,20250904111307195,None,31209,9.756770133972168,-2,-3,-1,-1,-1,-2,0,1,1756998787194709300
0,3.87246561,20250904111307195,None,31209,9.756770133972168,-1,1,-1,-1,-2,-2,-2,1,1756998787194829940
0,3.879953146,20250904111307202,None,31209,9.756770133972168,-1,2,1,1,3,0,-1,0,1756998787202328205
0,3.880149364,20250904111307203,None,31209,9.756770133972168,1,2,-1,-1,-1,2,-4,-3,1756998787202451467
0,3.895107746,20250904111307217,None,31209,12.612409591674805,-2,-7,-5,-2,0,-1,0,-1,1756998787217285633
0,3.89537406,20250904111307218,None,31209,12.612409591674805,0,-3,-1,-2,-2,0,-3,0,1756998787217402458
0,3.902215481,20250904111307225,None,31209,5.949249744415283,-4,-4,-4,-1,-2,1,2,1,1756998787224693298
0,3.902464151,20250904111307225,None,31209,5.949249744415283,-2,-1,-1,-1,-1,-1,0,-3,1756998787224817752
0,3.917359352,20250904111307240,None,31209,14.278200149536133,2,3,1,0,0,-3,4,-2,1756998787239732980
0,3.917654276,20250904111307240,None,31209,14.278200149536133,0,-1,-2,-2,-2,-1,-5,0,1756998787239886045
0,3.924769163,20250904111307247,None,31209,5.235340118408203,0,6,0,-3,-1,-6,-8,-2,1756998787247209787
0,3.9249897000000002,20250904111307247,None,31209,5.235340118408203,-6,-12,-3,-2,0,3,6,-1,1756998787247352600
0,3.932167292,20250904111307255,None,31209,13.80225944519043,-1,-4,-1,-1,1,-2,0,-1,1756998787254677772
0,3.932328701,20250904111307255,None,31209,13.80225944519043,0,0,1,1,-4,-1,-2,-3,1756998787254798650
0,3.939765453,20250904111307262,None,31209,5.949249744415283,0,0,-2,-6,-5,-3,-2,1,1756998787262213706
0,3.939965963,20250904111307262,None,31209,5.949249744415283,0,4,-1,-5,-1,-2,0,-1,1756998787262355566
0,3.9548206329999998,20250904111307277,None,31209,9.04286003112793,-1,0,-2,0,2,5,-1,-3,1756998787277287244
0,3.9550206660000002,20250904111307277,None,31209,9.04286003112793,-3,-5,-1,-1,0,-2,-3,-3,1756998787277470350
0,3.962364912,20250904111307285,None,31209,9.04286003112793,0,1,-1,0,-1,-2,1,1,1756998787284811496
0,3.96262145,20250904111307285,None,31209,9.04286003112793,-1,0,0,0,0,-1,-1,-1,1756998787284957885
0,3.969712019,20250904111307292,None,31209,9.280829429626465,-3,-3,-1,-1,-3,-1,-4,-1,1756998787292217969
0,3.9698894019999997,20250904111307292,None,31209,9.280829429626465,-1,-4,2,0,1,0,0,-2,1756998787292331933
0,3.984842777,20250904111307307,None,31209,6.187219619750977,-1,2,-1,-3,-2,-3,-1,-1,1756998787307278633
0,3.985064745,20250904111307307,None,31209,6.187219619750977,2,0,3,-6,-1,-5,-1,1,1756998787307410001
0,3.992301226,20250904111307315,None,31209,13.80225944519043,0,0,-4,-3,-2,1,-1,-2,1756998787314704418
0,3.992552519,20250904111307315,None,31209,13.80225944519043,2,-3,1,1,-1,1,2,-2,1756998787314832448
0,3.999784708,20250904111307322,None,31209,13.80225944519043,0,-5,0,1,-2,1,-1,-4,1756998787322253465
0,4.000007391,20250904111307322,None,31209,13.80225944519043,-2,-1,-3,-4,0,1,-2,0,1756998787322380542
0,4.0148108,20250904111307337,None,31209,13.80225944519043,-4,0,-5,-2,0,-1,2,0,1756998787337285995
0,4.015008926,20250904111307337,None,31209,13.80225944519043,0,1,-2,-1,-2,0,0,-1,1756998787337405681
0,4.022367001,20250904111307345,None,31209,5.4733099937438965,0,-2,3,1,1,-4,-3,0,1756998787344797134
0,4.022615671,20250904111307345,None,31209,5.4733099937438965,1,0,1,2,0,-3,-1,2,1756998787344932317
0,4.029772758,20250904111307352,None,31209,11.898499488830566,-1,4,-1,-6,1,-1,-5,2,1756998787352255582
0,4.029969692,20250904111307352,None,31209,11.898499488830566,-8,-5,-2,0,-3,0,-1,-3,1756998787352385044
0,4.044856787,20250904111307367,None,31209,8.328949928283691,-3,-6,-1,2,1,-1,-2,-1,1756998787367267131
0,4.045114279,20250904111307367,None,31209,8.328949928283691,1,2,-2,-3,-4,-1,4,1,1756998787367399930
0,4.052315235,20250904111307375,None,31209,9.994739532470703,2,5,-2,0,-2,1,-2,-1,1756998787374741554
0,4.052568674,20250904111307375,None,31209,9.994739532470703,3,4,-1,-1,2,-1,-5,-3,1756998787374879837
0,4.059588194,20250904111307382,None,31209,11.42255973815918,-1,2,2,0,1,0,-4,-2,1756998787382126092
0,4.059738874,20250904111307382,None,31209,11.42255973815918,1,0,-2,-1,-1,2,4,0,1756998787382234811
0,4.075100899,20250904111307397,None,31209,6.425189971923828,-1,-1,0,-3,1,-2,2,-2,1756998787397302627
0,4.075372696,20250904111307398,None,31209,13.564290046691895,0,-1,-2,1,0,-2,-4,-1,1756998787397434473
0,4.082360744,20250904111307405,None,31209,13.564290046691895,-1,-1,-1,-1,0,2,-1,-3,1756998787404738903
0,4.082808971,20250904111307405,None,31209,13.564290046691895,-2,0,-1,2,0,-1,2,0,1756998787404860734
0,4.090015888,20250904111307412,None,31209,4.997369766235352,-2,-3,0,0,0,-1,0,1,1756998787412313699
0,4.090233564,20250904111307413,None,31209,4.997369766235352,-1,-3,-3,-3,-1,-3,0,2,1756998787412447690
0,4.105083942,20250904111307427,None,31209,5.4733099937438965,0,-3,-1,-2,1,2,-3,-1,1756998787427321910
0,4.10528779,20250904111307428,None,31209,5.4733099937438965,2,0,-4,2,-2,1,-4,-3,1756998787427455902
0,4.112443685,20250904111307435,None,31209,5.4733099937438965,3,2,0,1,-1,-2,-1,0,1756998787434777975
0,4.112673759,20250904111307435,None,31209,5.4733099937438965,-1,-2,-3,-1,3,-2,-3,-3,1756998787434904575
0,4.119817972,20250904111307442,None,31209,12.612409591674805,-3,-1,1,-1,0,-2,0,-2,1756998787442204952
0,4.120115518,20250904111307442,None,31209,12.612409591674805,0,-2,0,2,1,0,-2,-2,1756998787442321300
0,4.135069132,20250904111307457,None,31209,9.994739532470703,-1,-1,-1,-1,4,-3,1,0,1756998787457368850
0,4.135263205,20250904111307458,None,31209,9.994739532470703,0,4,-2,0,0,-2,-3,-1,1756998787457538604
0,4.142329216,20250904111307465,None,31209,10.708649635314941,0,0,-1,-1,-1,-1,0,-1,1756998787464746475
0,4.142520904,20250904111307465,None,31209,10.708649635314941,-3,-7,-2,-1,2,0,-3,-3,1756998787464870929
0,4.149876594,20250904111307472,None,31209,7.139100074768066,0,1,2,1,0,0,0,1,1756998787472302675
0,4.15009284,20250904111307472,None,31209,7.139100074768066,-1,-1,-3,0,0,3,-3,-2,1756998787472438812
0,4.165067911,20250904111307487,None,31209,13.326319694519043,1,0,-3,-1,-2,-7,-8,1,1756998787487277984
0,4.165277243,20250904111307488,None,31209,13.326319694519043,-1,-4,-1,-2,0,4,4,-1,1756998787487406015
0,4.172632933,20250904111307495,None,31209,5.235340118408203,1,1,-2,0,-1,-2,-3,-2,1756998787494715213
0,4.172818184,20250904111307495,None,31209,5.235340118408203,0,-2,-3,-3,-1,-2,-1,-2,1756998787494837284
0,4.180087089,20250904111307502,None,31209,13.80225944519043,-2,0,0,-1,-1,-3,-1,1,1756998787502241611
0,4.180305958,20250904111307503,None,31209,13.80225944519043,0,1,1,0,-1,-2,-3,-2,1756998787502359151
0,4.195180416,20250904111307518,None,31209,12.850379943847656,-1,0,-3,0,0,-1,-1,0,1756998787517331123
0,4.195609808,20250904111307518,None,31209,12.850379943847656,-4,-1,-3,1,-4,-1,-1,0,1756998787517471790
0,4.202153206,20250904111307525,None,31209,12.850379943847656,-3,1,-4,1,-2,-4,-1,-3,1756998787524640083
0,4.202284098,20250904111307525,None,31209,12.850379943847656,0,-3,4,-1,3,-1,-1,1,1756998787524736881
0,4.20968318,20250904111307532,None,31209,7.615039825439453,-1,-3,-1,-1,-1,0,0,0,1756998787532189607
0,4.209821701,20250904111307532,None,31209,7.615039825439453,1,-1,1,-2,-4,-1,1,-1,1756998787532247304
0,4.224843502,20250904111307547,None,31209,9.756770133972168,3,-4,0,-1,-1,-4,-2,-4,1756998787547280073
0,4.2250778669999995,20250904111307547,None,31209,9.756770133972168,0,-2,-3,0,1,-2,1,1,1756998787547405004
0,4.23224163,20250904111307555,None,31209,7.37706995010376,0,1,-2,1,-1,-1,1,-1,1756998787554703950
0,4.232589245,20250904111307555,None,31209,7.37706995010376,0,-3,-1,-1,0,-2,-1,0,1756998787554827451
0,4.23976779,20250904111307562,None,31209,7.37706995010376,0,0,0,0,0,-1,-7,0,1756998787562233686
0,4.240059376,20250904111307562,None,31209,7.37706995010376,-6,-3,1,-3,-1,4,0,-2,1756998787562350273
0,4.255095243,20250904111307577,None,31209,5.235340118408203,4,0,-3,-2,-1,-1,0,-1,1756998787577456712
0,4.255318165,20250904111307578,None,31209,5.235340118408203,-1,4,1,0,1,1,2,0,1756998787577648639
0,4.262256145,20250904111307585,None,31209,14.278200149536133,-2,-5,-2,0,-1,0,-3,-1,1756998787584759473
0,4.2624647620000005,20250904111307585,None,31209,14.278200149536133,0,-2,-2,1,0,0,0,-1,1756998787584884405
0,4.269792557,20250904111307592,None,31209,5.235340118408203,-1,0,0,-1,0,-3,-2,0,1756998787592294216
0,4.269982576,20250904111307592,None,31209,5.235340118408203,0,-1,-2,-5,-5,1,-2,-3,1756998787592410326
0,4.285096645,20250904111307607,None,31209,13.326319694519043,0,-1,3,-2,0,-4,-2,-1,1756998787607275009
0,4.285480499,20250904111307608,None,31209,13.326319694519043,-2,2,1,-2,-1,-1,0,2,1756998787607408046
0,4.292642116,20250904111307615,None,31209,7.139100074768066,0,-4,-4,-3,-3,0,-4,-3,1756998787614750623
0,4.292882919,20250904111307615,None,31209,7.139100074768066,-5,-4,0,-1,-3,-2,1,-1,1756998787614870548
0,4.300140381,20250904111307623,None,31209,10.946619987487793,1,-1,1,-2,1,0,1,2,1756998787622287511
0,4.300361395,20250904111307623,None,31209,10.946619987487793,0,-1,0,2,0,0,-2,2,1756998787622404098
0,4.315226078,20250904111307638,None,31209,8.804889678955078,0,2,-2,0,2,-3,1,0,1756998787637373685
0,4.315469503,20250904111307638,None,31209,8.804889678955078,0,2,1,-1,2,0,1,-3,1756998787637540340
0,4.322155476,20250904111307645,None,31209,8.804889678955078,-1,-4,-1,2,-1,-6,-8,-3,1756998787644646644
0,4.3222899439999996,20250904111307645,None,31209,8.804889678955078,-2,-4,-4,-3,2,3,4,2,1756998787644815683
0,4.330112696,20250904111307652,None,31209,12.612409591674805,0,5,-2,-6,-3,0,-2,1,1756998787652288198
0,4.330300569,20250904111307653,None,31209,12.612409591674805,-1,1,1,-3,-1,-1,0,-2,1756998787652411937
0,4.345141888,20250904111307668,None,31209,13.80225944519043,-5,-4,-1,2,3,-2,-1,-1,1756998787667305469
0,4.34547615,20250904111307668,None,31209,13.80225944519043,0,2,-1,-1,-1,-2,0,-1,1756998787667434453
0,4.352543116,20250904111307675,None,31209,5.235340118408203,-4,0,-2,-4,0,-1,1,2,1756998787674724817
0,4.352762461,20250904111307675,None,31209,5.235340118408203,-4,-2,-5,-1,2,1,-1,1,1756998787674829721
0,4.35999155,20250904111307682,None,31209,5.235340118408203,4,0,-1,-2,-3,0,0,-3,1756998787682209730
0,4.360209465,20250904111307683,None,31209,5.235340118408203,-3,4,-3,-3,-1,-1,0,-1,1756998787682340145
0,4.375185013,20250904111307698,None,31209,6.901129722595215,-4,-6,0,-1,-1,-1,0,0,1756998787697349309
0,4.375430107,20250904111307698,None,31209,6.901129722595215,-1,-2,-1,-1,0,0,-4,-1,1756998787697489500
0,4.382606268,20250904111307705,None,31209,11.660530090332031,2,1,-1,-3,-1,-1,0,-1,1756998787704777002
0,4.382870674,20250904111307705,None,31209,11.660530090332031,0,-1,0,2,-1,-2,-3,-1,1756998787704900026
0,4.39008522,20250904111307712,None,31209,9.04286003112793,0,-1,1,-1,0,-1,0,-2,1756998787712294340
0,4.390330315,20250904111307713,None,31209,9.04286003112793,3,3,-4,-3,-3,-2,-3,-1,1756998787712414979
0,4.404849529,20250904111307727,None,31209,8.804889678955078,-2,1,1,-1,0,1,-4,1,1756998787727205991
0,4.405124187,20250904111307727,None,31209,8.804889678955078,1,-1,-4,-1,-2,-1,-6,-1,1756998787727343797
0,4.412069082,20250904111307734,None,31209,12.136469841003418,1,-1,1,1,-3,4,6,-3,1756998787734638690
0,4.412193298,20250904111307735,None,31209,12.136469841003418,-2,0,-2,-1,-1,-1,1,0,1756998787734740734
0,4.419672728,20250904111307742,None,31209,5.949249744415283,0,-3,-2,3,-2,-3,-3,-2,1756998787742192268
0,4.419857502,20250904111307742,None,31209,5.949249744415283,0,1,1,0,-1,-1,-3,-2,1756998787742338895
0,4.434977531,20250904111307757,None,31209,14.040229797363281,-1,-2,0,0,-1,-5,-1,-1,1756998787757354974
0,4.435210705,20250904111307758,None,31209,14.040229797363281,-2,-2,-1,-1,-2,-1,0,-1,1756998787757506370
0,4.442231417,20250904111307765,None,31209,5.235340118408203,-2,-1,-4,1,-1,-1,0,-1,1756998787764715194
0,4.442425013,20250904111307765,None,31209,5.235340118408203,-1,-1,-2,-2,-1,-3,0,0,1756998787764846563
0,4.457415342,20250904111307780,None,31209,5.71127986907959,1,1,-3,-1,0,-2,0,-1,1756998787779796838
0,4.4577908520000005,20250904111307780,None,31209,5.71127986907959,-1,5,1,-1,-1,0,-1,-3,1756998787779934883
0,4.464794874,20250904111307787,None,31209,11.898499488830566,-1,-8,-3,0,-1,0,-2,-1,1756998787787233352
0,4.465019464,20250904111307787,None,31209,11.898499488830566,-1,-1,-2,0,1,-1,-1,-1,1756998787787358522
0,4.472746372,20250904111307795,None,31209,8.566919326782227,5,-2,0,-2,0,0,0,-1,1756998787794728994
0,4.472997188,20250904111307795,None,31209,8.566919326782227,-2,4,0,-2,-2,-1,0,-2,1756998787794836521
0,4.487428904,20250904111307810,None,31209,9.280829429626465,-4,-9,-3,0,1,0,0,-3,1756998787809703588
0,4.487626553,20250904111307810,None,31209,9.280829429626465,-1,0,-2,-1,-1,-6,-4,-1,1756998787809803009
0,4.495055675,20250904111307817,None,31209,11.660530090332031,-1,-2,-3,-1,0,4,11,0,1756998787817269325
0,4.495302677,20250904111307818,None,31209,11.660530090332031,2,2,-1,-5,-3,-2,2,-1,1756998787817379474
0,4.502712488,20250904111307825,None,31209,6.425189971923828,1,-1,-1,-3,-2,0,0,-3,1756998787824826955
0,4.502894401,20250904111307825,None,31209,6.425189971923828,1,3,1,-3,-2,-5,-6,-2,1756998787824962377
0,4.517409086,20250904111307840,None,31209,13.80225944519043,0,0,-1,2,-2,1,4,2,1756998787839731216
0,4.517668247,20250904111307840,None,31209,13.80225944519043,-1,-3,-5,-1,-2,1,0,-4,1756998787839853286
0,4.524956942,20250904111307847,None,31209,5.235340118408203,0,-1,0,0,0,0,-3,0,1756998787847274303
0,4.52515769,20250904111307848,None,31209,5.235340118408203,-3,2,1,0,-1,-1,-2,-1,1756998787847389698
0,4.532603741,20250904111307855,None,31209,13.80225944519043,-2,1,-2,-1,0,-1,1,0,1756998787854761838
0,4.532823086,20250904111307855,None,31209,13.80225944519043,1,0,-5,0,-4,-3,0,1,1756998787854895353
0,4.547678709,20250904111307870,None,31209,12.136469841003418,1,-1,-2,1,0,5,-3,4,1756998787869804382
0,4.547906399,20250904111307870,None,31209,12.136469841003418,0,-2,-2,-3,0,0,0,1,1756998787869947433
0,4.555164099,20250904111307878,None,31209,8.09097957611084,-1,-1,-1,1,2,0,-4,-2,1756998787877316951
0,4.555412769,20250904111307878,None,31209,8.09097957611084,-1,-5,0,1,0,-1,0,-1,1756998787877480745
0,4.562647581,20250904111307885,None,31209,8.09097957611084,3,3,-1,1,0,0,2,0,1756998787884774923
0,4.562866449,20250904111307885,None,31209,8.09097957611084,-2,3,2,-2,1,-4,-7,-3,1756998787884900808
0,4.585946798,20250904111307908,None,31209,6.425189971923828,-4,-7,-2,-2,-1,5,10,0,1756998787908091306
0,4.586242914,20250904111307909,None,31209,6.425189971923828,2,-2,-1,0,-1,-2,0,-2,1756998787908244371
0,4.586468935,20250904111307909,None,31209,6.425189971923828,0,5,1,-1,-3,-2,0,1,1756998787908765792
0,4.5865566730000005,20250904111307909,None,31209,6.425189971923828,-1,-4,0,-3,-3,-1,-4,-2,1756998787908883094
0,4.592535257,20250904111307915,None,31209,13.326319694519043,-2,-3,-1,-3,-1,1,0,-1,1756998787914744377
0,4.592736483,20250904111307915,None,31209,13.326319694519043,0,2,-2,2,-2,-2,-3,0,1756998787914855718
0,4.60765028,20250904111307930,None,31209,4.997369766235352,2,-1,2,2,0,-3,-1,0,1756998787929764270
0,4.6078960890000005,20250904111307930,None,31209,4.997369766235352,1,0,-2,-2,-1,-1,0,0,1756998787929901123
0,4.615088224,20250904111307937,None,31209,13.80225944519043,-2,0,-1,-1,-5,0,1,-3,1756998787937258481
0,4.615302324,20250904111307938,None,31209,13.80225944519043,3,1,4,-1,1,-1,-3,-3,1756998787937366724
0,4.622620106,20250904111307945,None,31209,5.235340118408203,-3,-1,-4,0,-3,0,-1,-4,1756998787944772005
0,4.622862339,20250904111307945,None,31209,5.235340118408203,1,-1,0,1,0,-1,3,0,1756998787944890975
0,4.63758707,20250904111307960,None,31209,7.139100074768066,1,2,-1,1,0,0,1,1,1756998787959770679
0,4.637810469,20250904111307960,None,31209,7.139100074768066,1,-6,-1,-1,1,0,-2,-2,1756998787959894180
0,4.645071506,20250904111307967,None,31209,7.139100074768066,-3,-3,1,-2,2,0,0,-2,1756998787967281103
0,4.645287275,20250904111307968,None,31209,7.139100074768066,-1,4,1,0,0,-5,-9,-1,1756998787967390298
0,4.652621031,20250904111307975,None,31209,9.756770133972168,1,0,-2,-1,0,7,12,2,1756998787974774360
0,4.65284133,20250904111307975,None,31209,9.756770133972168,-3,-3,-2,-3,-4,-4,1,1,1756998787974886655
0,4.667665958,20250904111307990,None,31209,6.901129722595215,-1,3,-3,-1,-1,-1,-2,1,1756998787989738225
0,4.667858601,20250904111307990,None,31209,6.901129722595215,-3,-1,0,-2,-3,0,-1,-1,1756998787989859819
0,4.675074339,20250904111307997,None,31209,12.612409591674805,0,3,0,0,-1,0,-3,-2,1756998787997279882
0,4.675276279,20250904111307998,None,31209,12.612409591674805,1,-1,-2,-2,0,0,-1,-1,1756998787997404098
0,4.682566881,20250904111308005,None,31209,12.612409591674805,0,1,-4,3,-3,0,-2,-3,1756998788004708528
0,4.682767153,20250904111308005,None,31209,12.612409591674805,-3,-9,-3,-1,-2,0,-1,0,1756998788004817724
0,4.69763279,20250904111308020,None,31209,13.80225944519043,-1,-1,-2,1,0,-2,-1,-2,1756998788019792795
0,4.697859287,20250904111308020,None,31209,13.80225944519043,1,-1,-1,1,-3,-2,1,0,1756998788019915103
0,4.705076694,20250904111308027,None,31209,5.4733099937438965,1,-1,0,-1,-6,-4,-1,-1,1756998788027272939
0,4.705323219,20250904111308028,None,31209,5.4733099937438965,1,-2,0,3,-1,-1,-2,-1,1756998788027403831
0,4.712548256,20250904111308035,None,31209,13.326319694519043,1,3,2,1,0,-2,-2,0,1756998788034741163
0,4.712749243,20250904111308035,None,31209,13.326319694519043,-2,0,-1,-2,0,2,0,-1,1756998788034853935
0,4.727402687,20250904111308050,None,31209,7.615039825439453,-2,-2,0,-2,-2,-5,3,0,1756998788049821615
0,4.727779627,20250904111308050,None,31209,7.615039825439453,-4,-1,-7,2,1,2,1,-2,1756998788050013065
0,4.734759331,20250904111308057,None,31209,11.660530090332031,-3,5,-3,-1,-1,-7,-3,-1,1756998788057285070
0,4.7349748609999995,20250904111308057,None,31209,11.660530090332031,0,-1,-1,-1,0,0,7,3,1756998788057419776
0,4.742143631,20250904111308065,None,31209,10.232709884643555,0,-3,1,0,-1,-2,1,-2,1756998788064727544
0,4.742302656,20250904111308065,None,31209,10.232709884643555,-4,-3,-2,-6,-1,-3,-2,-1,1756998788064853429
0,4.757351875,20250904111308080,None,31209,7.8530097007751465,0,-1,1,0,-2,-1,-2,2,1756998788079793214
0,4.757698059,20250904111308080,None,31209,13.088349342346191,1,-2,0,2,-1,-3,-3,-1,1756998788079934835
0,4.764785767,20250904111308087,None,31209,13.088349342346191,-1,1,-1,0,3,0,-3,-2,1756998788087290287
0,4.765035629,20250904111308087,None,31209,13.088349342346191,-1,1,-1,-3,1,2,0,-4,1756998788087404966
0,4.772334576,20250904111308095,None,31209,5.949249744415283,0,-3,0,0,-1,0,-1,0,1756998788094807863
0,4.772557259,20250904111308095,None,31209,5.949249744415283,0,6,-1,-1,-1,-2,-2,-1,1756998788094940185
0,4.787643909,20250904111308110,None,31209,5.949249744415283,2,-2,-2,3,-3,0,1,0,1756998788109781265
0,4.787890673,20250904111308110,None,31209,5.949249744415283,-2,-5,-5,-1,-1,-2,-3,-3,1756998788109929561
0,4.795023918,20250904111308117,None,31209,14.040229797363281,0,0,-3,0,-3,0,-1,-3,1756998788117242574
0,4.795242548,20250904111308118,None,31209,14.040229797363281,-1,1,-4,1,0,-1,-4,-1,1756998788117347478
0,4.802609444,20250904111308125,None,31209,14.040229797363281,0,-3,0,2,-2,-1,1,-1,1756998788124744892
0,4.802788973,20250904111308125,None,31209,14.040229797363281,0,2,0,-2,4,2,1,-3,1756998788124856948
0,4.817630052,20250904111308140,None,31209,11.898499488830566,-1,4,-1,-2,0,2,-1,-1,1756998788139837980
0,4.817855596,20250904111308140,None,31209,11.898499488830566,1,1,0,1,-2,-4,-1,-1,1756998788139987230
0,4.824997902,20250904111308147,None,31209,10.232709884643555,-1,-1,-5,-2,-1,-5,-7,-2,1756998788147300720
0,4.825194597,20250904111308148,None,31209,10.232709884643555,0,0,1,1,0,3,5,-2,1756998788147419214
0,4.832406282,20250904111308155,None,31209,9.280829429626465,-1,1,0,2,-1,3,1,3,1756998788154774665
0,4.832593679,20250904111308155,None,31209,9.280829429626465,-2,-3,-2,-4,-1,2,-2,-1,1756998788154892206
0,4.847439527,20250904111308170,None,31209,12.850379943847656,-2,1,-1,-1,-3,-1,-2,-2,1756998788169769048
0,4.847638369,20250904111308170,None,31209,12.850379943847656,-1,-1,-1,-5,-1,0,-2,1,1756998788169906377
0,4.854889154,20250904111308177,None,31209,6.187219619750977,1,-2,0,-3,0,-1,3,1,1756998788177294492
0,4.855198383,20250904111308178,None,31209,6.187219619750977,0,-2,-6,-1,0,-2,-2,2,1756998788177412033
0,4.8624887470000004,20250904111308185,None,31209,14.516169548034668,-3,-2,-3,0,2,0,0,-1,1756998788184735059
0,4.862728596,20250904111308185,None,31209,14.516169548034668,-4,1,2,0,-1,0,0,1,1756998788184854507
0,4.877550125,20250904111308200,None,31209,5.71127986907959,-3,-5,-5,-4,-4,-2,-3,-2,1756998788199824094
0,4.877766609,20250904111308200,None,31209,5.71127986907959,0,-4,-1,0,-1,-3,-1,-1,1756998788199961185
0,4.8850595949999995,20250904111308207,None,31209,14.278200149536133,-1,1,-4,3,-3,-3,-1,1,1756998788207263708
0,4.885278463,20250904111308208,None,31209,14.278200149536133,0,4,2,-3,-1,-1,2,-3,1756998788207373380
0,4.892686844,20250904111308215,None,31209,7.139100074768066,-3,-9,2,0,-2,-1,-2,0,1756998788214856386
0,4.892905235,20250904111308215,None,31209,7.139100074768066,1,-6,1,-1,0,-1,0,0,1756998788215020895
0,4.907651901,20250904111308230,None,31209,9.756770133972168,2,-2,1,2,3,-3,-5,0,1756998788229830741
0,4.907947779,20250904111308230,None,31209,9.756770133972168,0,-1,-4,-1,1,4,9,0,1756998788229975461
0,4.915090084,20250904111308237,None,31209,9.756770133972168,-1,3,0,-1,-2,0,3,-1,1756998788237299203
0,4.91530776,20250904111308238,None,31209,9.756770133972168,0,3,1,-1,-1,-1,-3,0,1756998788237419605
0,4.922540188,20250904111308245,None,31209,9.756770133972168,-1,0,-1,0,0,-1,-2,3,1756998788244721174
0,4.922949076,20250904111308245,None,31209,9.756770133972168,-3,0,-1,-3,-2,-2,2,0,1756998788244830369
0,4.937504053,20250904111308260,None,31209,7.37706995010376,-2,1,-1,1,1,-2,-7,-1,1756998788259795427
0,4.9377045630000005,20250904111308260,None,31209,7.37706995010376,1,-3,0,0,-1,1,2,0,1756998788259921312
0,4.945128679,20250904111308268,None,31209,14.516169548034668,-3,-2,-1,-2,-3,1,-2,-1,1756998788267336606
0,4.945345163,20250904111308268,None,31209,14.516169548034668,0,0,-3,0,2,-2,0,1,1756998788267462253
0,4.952662945,20250904111308275,None,31209,6.187219619750977,0,-5,0,-2,-1,-1,-1,-1,1756998788274840831
0,4.952880621,20250904111308275,None,31209,6.187219619750977,1,-5,0,-3,1,-2,-1,0,1756998788274996757
0,4.967629671,20250904111308290,None,31209,14.75413990020752,-1,-1,0,-1,1,0,0,1,1756998788289745569
0,4.967875481,20250904111308290,None,31209,14.75413990020752,-1,-1,-2,-4,-3,-1,-1,0,1756998788289917230
0,4.975045443,20250904111308297,None,31209,6.425189971923828,0,-1,-1,-3,-4,1,0,-4,1756998788297272920
0,4.97527194,20250904111308298,None,31209,6.425189971923828,-1,-2,0,1,2,-3,-2,-3,1756998788297390222
0,4.982588053,20250904111308305,None,31209,12.374439239501953,-1,-1,-2,-2,0,-3,-6,1,1756998788304748058
0,4.982751131,20250904111308305,None,31209,12.374439239501953,2,-4,0,0,-4,4,12,2,1756998788304887771
0,4.9976260660000005,20250904111308320,None,31209,9.994739532470703,-2,4,0,-1,-1,-3,-2,0,1756998788319761753
0,4.99778676,20250904111308320,None,31209,9.994739532470703,-4,-6,-9,0,0,-2,-3,-1,1756998788319881677
0,5.005207539,20250904111308328,None,31209,9.994739532470703,-3,-9,-3,0,0,-1,1,0,1756998788327336788
0,5.005587101,20250904111308328,None,31209,9.994739532470703,0,2,1,0,-1,-1,0,1,1756998788327480077
0,5.01265502,20250904111308335,None,31209,12.374439239501953,-5,2,-1,-1,0,0,-1,1,1756998788334774494
0,5.012873411,20250904111308335,None,31209,12.374439239501953,-1,3,-2,4,-1,-1,0,0,1756998788334892272
0,5.028156996,20250904111308351,None,31209,14.516169548034668,1,-3,-1,-1,-1,-1,1,-4,1756998788350271224
0,5.028407335,20250904111308351,None,31209,14.516169548034668,1,-2,-2,-5,1,0,-3,2,1756998788350396633
0,5.035098076,20250904111308357,None,31209,5.949249744415283,-5,0,-2,-1,-3,-2,-1,-2,1756998788357293605
0,5.035317421,20250904111308358,None,31209,5.949249744415283,3,0,-1,-1,-2,-2,0,0,1756998788357415676
0,5.042643547,20250904111308365,None,31209,5.949249744415283,1,-2,0,-1,-3,0,-5,-3,1756998788364796876
0,5.042954922,20250904111308365,None,31209,14.516169548034668,0,-1,-2,1,-1,0,0,2,1756998788364917278
0,5.057655096,20250904111308380,None,31209,6.187219619750977,-4,-1,-2,-2,0,2,1,-1,1756998788379804372
0,5.057872772,20250904111308380,None,31209,6.187219619750977,0,1,0,-2,3,-1,-6,-1,1756998788379970550
0,5.06502676,20250904111308387,None,31209,12.850379943847656,0,-5,-1,-3,2,5,10,0,1756998788387297630
0,5.065226078,20250904111308388,None,31209,12.850379943847656,-1,0,-1,0,-3,-4,0,1,1756998788387419462
0,5.072650671,20250904111308395,None,31209,8.566919326782227,-1,-1,0,-1,-3,1,-2,-2,1756998788394784688
0,5.072923183,20250904111308395,None,31209,8.566919326782227,-3,1,-1,-3,-4,0,2,-1,1756998788394898891
0,5.087588549,20250904111308410,None,31209,10.232709884643555,-1,0,0,-3,1,-3,-1,-1,1756998788409818410
0,5.087766886,20250904111308410,None,31209,10.232709884643555,1,-1,0,-1,-3,4,0,-1,1756998788409973621
0,5.0949842929999996,20250904111308417,None,31209,11.184589385986328,2,1,2,-1,0,0,-2,0,1756998788417338371
0,5.095198631,20250904111308418,None,31209,11.184589385986328,-1,4,-1,-3,-4,0,-1,1,1756998788417471170
0,5.102310419,20250904111308425,None,31209,7.615039825439453,-3,-8,-1,0,2,-2,0,1,1756998788424757719
0,5.102653742,20250904111308425,None,31209,7.615039825439453,-2,-4,0,-1,0,-1,-5,0,1756998788424898624
0,5.117670059,20250904111308440,None,31209,14.040229797363281,-1,5,-2,-5,-3,-1,-2,0,1756998788439823389
0,5.1181674,20250904111308441,None,31209,5.71127986907959,-2,-5,-1,1,-1,-1,1,-1,1756998788439954757
0,5.125115395,20250904111308447,None,31209,5.71127986907959,-1,-2,0,0,0,-3,-3,-3,1756998788447318792
0,5.125421286,20250904111308448,None,31209,5.71127986907959,0,2,2,0,-1,-4,-7,-3,1756998788447449922
0,5.132627487,20250904111308455,None,31209,14.278200149536133,1,2,1,-2,1,3,9,2,1756998788454795598
0,5.132846832,20250904111308455,None,31209,14.278200149536133,1,1,-3,-2,-2,-3,2,0,1756998788454924583
0,5.14765954,20250904111308470,None,31209,13.564290046691895,0,0,0,0,2,-1,-2,1,1756998788469794988
0,5.148091555,20250904111308470,None,31209,13.564290046691895,3,2,0,0,-1,-2,-3,1,1756998788469930410
0,5.155158043,20250904111308478,None,31209,8.566919326782227,-2,0,-1,1,-3,1,1,0,1756998788477343320
0,5.155371189,20250904111308478,None,31209,8.566919326782227,0,-1,4,2,-2,-5,0,-1,1756998788477539300
0,5.162654638,20250904111308485,None,31209,8.566919326782227,3,-1,0,2,-2,0,0,-2,1756998788484804391
0,5.162896156,20250904111308485,None,31209,8.566919326782227,-2,-6,-1,-1,-1,0,-1,2,1756998788484950065
0,5.177633762,20250904111308500,None,31209,10.946619987487793,-1,-3,2,1,-3,-2,2,0,1756998788499799489
0,5.177853823,20250904111308500,None,31209,10.946619987487793,-1,2,-3,-3,-3,-1,-2,0,1756998788499934911
0,5.185168743,20250904111308508,None,31209,8.09097957611084,-1,1,0,-3,-2,-3,-2,0,1756998788507341623
0,5.185408831,20250904111308508,None,31209,8.09097957611084,-2,-3,-2,-1,-2,-1,-1,0,1756998788507468700
0,5.192653418,20250904111308515,None,31209,13.326319694519043,0,-2,-1,-2,-3,-2,0,0,1756998788514800786
0,5.192873239,20250904111308515,None,31209,13.326319694519043,-3,-2,-2,-2,-2,-4,-2,-1,1756998788514919996
0,5.207877397,20250904111308530,None,31209,5.71127986907959,0,-5,3,2,-3,0,1,2,1756998788529804706
0,5.208138227,20250904111308531,None,31209,5.71127986907959,1,4,1,0,0,-6,-5,1,1756998788529946088
0,5.215192795,20250904111308538,None,31209,14.278200149536133,0,-4,0,1,1,2,0,-2,1756998788537364721
0,5.215618372,20250904111308538,None,31209,14.278200149536133,-2,1,-2,-1,1,-2,2,0,1756998788537521600
0,5.222647905,20250904111308545,None,31209,5.71127986907959,1,-3,-2,-3,-3,-2,-2,-1,1756998788544749259
0,5.222913027,20250904111308545,None,31209,5.71127986907959,-1,3,-2,-1,0,1,0,0,1756998788544879436
0,5.237776041,20250904111308560,None,31209,13.80225944519043,-2,-3,-2,0,0,-4,-1,-2,1756998788559897422
0,5.238002539,20250904111308560,None,31209,13.80225944519043,0,-2,-4,1,-1,-1,3,-1,1756998788560037374
0,5.245221376,20250904111308568,None,31209,7.615039825439453,-4,-3,1,-1,1,-4,-1,-2,1756998788567422151
0,5.245492697,20250904111308568,None,31209,7.615039825439453,-3,4,1,-4,-1,1,1,-3,1756998788567605495
0,5.252405643,20250904111308575,None,31209,11.184589385986328,-1,1,1,0,0,-1,-4,-2,1756998788574787616
0,5.252706528,20250904111308575,None,31209,11.184589385986328,0,-1,-2,2,-1,1,1,-2,1756998788574904918
0,5.267841339,20250904111308590,None,31209,7.8530097007751465,1,1,-1,-2,-2,1,2,1,1756998788589954853
0,5.268061161,20250904111308590,None,31209,7.8530097007751465,2,-2,1,-2,0,0,-1,0,1756998788590146780
0,5.275340319,20250904111308598,None,31209,12.850379943847656,-3,0,0,0,-1,-1,0,-1,1756998788597506284
0,5.275580645,20250904111308598,None,31209,12.850379943847656,-2,-2,3,-1,-1,-1,0,1,1756998788597683906
0,5.282610893,20250904111308605,None,31209,12.850379943847656,-2,0,-2,2,0,-3,-2,-3,1756998788604758262
0,5.283009529,20250904111308605,None,31209,12.850379943847656,0,2,1,2,-1,-3,2,-2,1756998788604893684
0,5.297678947,20250904111308620,None,31209,14.040229797363281,0,-2,1,0,-2,-5,-10,-1,1756998788619843721
0,5.297827005,20250904111308620,None,31209,14.040229797363281,1,1,-3,-5,-1,10,7,0,1756998788619991302
0,5.304728985,20250904111308627,None,31209,5.4733099937438965,-5,-1,0,-1,-1,-1,1,-4,1756998788627319812
0,5.304815531,20250904111308627,None,31209,5.4733099937438965,1,1,2,0,-2,-3,-1,-2,1756998788627446889
0,5.312036991,20250904111308634,None,31209,13.80225944519043,-6,2,-1,-4,0,-2,-3,0,1756998788634757518
0,5.312103987,20250904111308634,None,31209,13.80225944519043,-4,-10,-3,-2,-2,3,-1,-3,1756998788634863376
0,5.327135801,20250904111308649,None,31209,6.901129722595215,-1,-1,1,2,-2,-3,-1,0,1756998788649768114
0,5.327234983,20250904111308650,None,31209,6.901129722595215,3,0,0,-1,1,0,1,3,1756998788649930477
0,5.334666729,20250904111308657,None,31209,11.184589385986328,0,3,2,0,3,4,-2,-1,1756998788657297372
0,5.334780216,20250904111308657,None,31209,11.184589385986328,2,2,-1,0,-2,1,-1,-1,1756998788657430410
0,5.342300177,20250904111308665,None,31209,9.518799781799316,-3,-2,0,-3,-1,-2,-3,-1,1756998788664892435
0,5.342422008,20250904111308665,None,31209,9.518799781799316,0,-7,-2,0,2,0,-2,-1,1756998788665094852
0,5.357727766,20250904111308680,None,31209,8.566919326782227,0,0,1,-2,-3,-1,1,0,1756998788680288791
0,5.3578562739999995,20250904111308680,None,31209,8.566919326782227,1,3,3,-1,-3,-2,-2,0,1756998788680456399
0,5.364589691,20250904111308687,None,31209,11.660530090332031,1,-1,-1,-1,-3,1,-3,-4,1756998788687237739
0,5.364775419,20250904111308687,None,31209,11.660530090332031,-2,-1,-1,0,0,-1,-1,1,1756998788687352657
0,5.37213707,20250904111308694,None,31209,5.71127986907959,2,0,0,0,-1,0,-1,0,1756998788694789886
0,5.372221708,20250904111308695,None,31209,5.71127986907959,2,-2,0,1,-1,3,-2,-1,1756998788694918394
0,5.387215137,20250904111308710,None,31209,5.235340118408203,2,1,-2,-2,1,-3,-4,-1,1756998788709790468
0,5.387357235,20250904111308710,None,31209,5.235340118408203,1,-1,1,-1,-1,1,7,-2,1756998788709936857
0,5.394665003,20250904111308717,None,31209,13.80225944519043,-1,-1,-2,-3,0,-3,-2,0,1756998788717316865
0,5.39479804,20250904111308717,None,31209,13.80225944519043,-2,-1,-2,-2,-1,0,-2,-2,1756998788717453002
0,5.409629106,20250904111308732,None,31209,6.187219619750977,0,-1,1,-1,-3,0,-3,-1,1756998788732289314
0,5.409769773,20250904111308732,None,31209,6.187219619750977,-1,0,-2,-2,-1,0,-2,2,1756998788732425689
0,5.4170358180000004,20250904111308739,None,31209,11.42255973815918,-4,2,-1,0,0,1,0,1,1756998788739707469
0,5.417107344,20250904111308739,None,31209,11.42255973815918,-1,-3,-2,-2,-4,-1,-1,-3,1756998788739827632
0,5.424528599,20250904111308747,None,31209,8.804889678955078,2,0,-1,-4,-2,-1,-3,2,1756998788747199773
0,5.424598455,20250904111308747,None,31209,8.804889678955078,2,-4,4,0,0,0,-2,2,1756998788747328042
0,5.439903974,20250904111308762,None,31209,9.280829429626465,-3,-5,-1,-1,-1,-3,0,-3,1756998788762354612
0,5.43999815,20250904111308762,None,31209,9.280829429626465,1,-6,-1,0,1,0,-3,-2,1756998788762489318
0,5.447098017,20250904111308769,None,31209,11.898499488830566,-1,-4,-2,-1,-1,-2,2,-2,1756998788769754171
0,5.447170973,20250904111308770,None,31209,11.898499488830566,-1,4,-1,1,3,1,0,1,1756998788769870281
0,5.454558849,20250904111308777,None,31209,6.425189971923828,-1,5,-1,-1,2,-3,-1,-2,1756998788777222394
0,5.454659223,20250904111308777,None,31209,6.425189971923828,-4,-6,0,-2,-5,2,-1,-3,1756998788777343034
0,5.469714165,20250904111308792,None,31209,4.997369766235352,1,1,0,2,-1,0,-3,-2,1756998788792312622
0,5.469876528,20250904111308792,None,31209,4.997369766235352,-1,-1,-1,-1,-1,-4,-7,-3,1756998788792510271
0,5.477156639,20250904111308800,None,31209,4.997369766235352,-1,-3,-3,1,1,1,4,4,1756998788799776554
0,5.477245569,20250904111308800,None,31209,4.997369766235352,-4,0,1,0,1,1,0,-1,1756998788799911499
0,5.484514952,20250904111308807,None,31209,13.80225944519043,-4,-4,-3,-4,0,1,-1,1,1756998788807210445
0,5.484580994,20250904111308807,None,31209,13.80225944519043,0,-2,-3,-3,-3,-1,-3,1,1756998788807323217
0,5.499640226,20250904111308822,None,31209,11.898499488830566,4,2,3,-1,0,-1,-3,0,1756998788822283983
0,5.499731064,20250904111308822,None,31209,11.898499488830566,0,1,0,-2,0,-1,-3,0,1756998788822410821
0,5.507228851,20250904111308830,None,31209,8.328949928283691,0,-2,1,2,2,0,0,-2,1756998788829773664
0,5.507336378,20250904111308830,None,31209,8.328949928283691,0,4,-1,-1,0,-1,3,-1,1756998788829903841
0,5.51478982,20250904111308837,None,31209,9.518799781799316,-5,-8,-1,-2,0,-1,-2,1,1756998788837348937
0,5.514920711,20250904111308837,None,31209,9.518799781799316,-1,-4,-1,-1,-2,-2,-3,-3,1756998788837495565
0,5.529821873,20250904111308852,None,31209,11.184589385986328,-1,1,2,0,-3,0,-1,0,1756998788852338075
0,5.5299963949999995,20250904111308852,None,31209,11.184589385986328,0,-2,-3,0,-1,-2,0,-1,1756998788852492332
0,5.537092447,20250904111308859,None,31209,6.425189971923828,-1,-1,-2,1,0,1,1,-1,1756998788859733343
0,5.537198543,20250904111308860,None,31209,6.425189971923828,-1,-1,-3,1,0,-2,0,-3,1756998788859858512
0,5.544751167,20250904111308867,None,31209,13.564290046691895,0,1,1,0,2,1,0,2,1756998788867357254
0,5.544902325,20250904111308867,None,31209,13.564290046691895,1,0,-2,-3,1,-2,-4,-1,1756998788867506504
0,5.5597305299999995,20250904111308882,None,31209,4.997369766235352,1,-1,0,-1,-5,-3,-3,0,1756998788882347345
0,5.559842586,20250904111308882,None,31209,4.997369766235352,-1,0,1,-1,1,-2,2,0,1756998788882481813
0,5.567099094,20250904111308889,None,31209,14.040229797363281,0,2,-4,-3,-2,-1,-1,0,1756998788889783143
0,5.567190409,20250904111308890,None,31209,14.040229797363281,-1,0,-1,0,3,-1,-4,-1,1756998788889900207
0,5.574693441,20250904111308897,None,31209,5.71127986907959,0,-2,0,1,-2,-3,-3,-1,1756998788897334575
0,5.574809074,20250904111308897,None,31209,5.71127986907959,-3,0,0,0,0,-4,-1,0,1756998788897462606
0,5.589794874,20250904111308912,None,31209,8.09097957611084,-2,0,-1,0,1,-5,0,-3,1756998788912325859
0,5.589934349,20250904111308912,None,31209,8.09097957611084,1,0,1,-1,0,2,1,2,1756998788912540674
0,5.597182274,20250904111308920,None,31209,8.09097957611084,-1,2,1,-1,-2,1,-1,-1,1756998788919775247
0,5.597409487,20250904111308920,None,31209,10.470680236816406,-1,1,-1,0,-3,1,-4,0,1756998788919905900
0,5.604575872,20250904111308927,None,31209,10.470680236816406,1,-3,-2,-1,-3,-1,-3,1,1756998788927256584
0,5.604682922,20250904111308927,None,31209,10.470680236816406,0,5,2,0,0,-1,-2,-3,1756998788927362203
0,5.619806528,20250904111308942,None,31209,7.37706995010376,-5,-12,-4,1,-1,0,-1,-1,1756998788942348957
0,5.619979143,20250904111308942,None,31209,7.37706995010376,-2,-3,0,-4,-1,-3,-1,-2,1756998788942491054
0,5.627215624,20250904111308950,None,31209,13.564290046691895,1,1,1,-1,0,-1,0,-2,1756998788949785709
0,5.6273739339999995,20250904111308950,None,31209,13.564290046691895,1,4,0,-1,1,-2,4,1,1756998788949907779
0,5.6346189970000005,20250904111308957,None,31209,5.4733099937438965,-2,-2,-1,0,-1,0,-5,0,1756998788957272291
0,5.634737253,20250904111308957,None,31209,5.4733099937438965,-4,-4,3,2,1,-5,-6,-4,1756998788957374811
0,5.649732828,20250904111308972,None,31209,14.040229797363281,-1,-4,-2,-3,-3,5,6,0,1756998788972322702
0,5.649875164,20250904111308972,None,31209,14.040229797363281,-1,-1,1,0,-2,0,1,1,1756998788972491741
0,5.657203913,20250904111308980,None,31209,5.4733099937438965,-3,-2,2,0,1,2,1,1,1756998788979775190
0,5.657344818,20250904111308980,None,31209,5.4733099937438965,1,-1,2,0,-1,-3,-3,-1,1756998788979923248
0,5.66458559,20250904111308987,None,31209,13.088349342346191,-1,6,0,1,-1,-3,-1,0,1756998788987265825
0,5.664660454,20250904111308987,None,31209,13.088349342346191,-3,-4,-1,0,-1,-1,1,-3,1756998788987388372
0,5.679736376,20250904111309002,None,31209,7.615039825439453,-3,-3,-5,-2,-2,-1,0,-2,1756998789002349376
0,5.679827452,20250904111309002,None,31209,7.615039825439453,-1,-1,-3,0,2,-1,-2,-2,1756998789002501726
0,5.687166691,20250904111309010,None,31209,10.708649635314941,-1,-2,-2,1,-2,-1,5,-1,1756998789009775876
0,5.687262535,20250904111309010,None,31209,10.708649635314941,0,1,-2,-1,1,1,-1,-2,1756998789009903430
0,5.694725275,20250904111309017,None,31209,9.994739532470703,-3,0,0,-3,-2,-1,-4,1,1756998789017326116
0,5.694843531,20250904111309017,None,31209,9.994739532470703,2,-3,-1,-1,0,0,-1,-1,1756998789017447471
0,5.70976305,20250904111309032,None,31209,12.612409591674805,-3,2,0,0,0,-4,-2,2,1756998789032358169
0,5.709869862,20250904111309032,None,31209,12.612409591674805,-3,-7,-4,-2,-4,-3,-2,-1,1756998789032552719
0,5.717219353,20250904111309040,None,31209,12.612409591674805,-1,-3,-2,-2,0,1,-4,-2,1756998789039880275
0,5.717294216,20250904111309040,None,31209,12.612409591674805,2,0,1,1,-1,-1,0,-1,1756998789040030717
0,5.7247254850000004,20250904111309047,None,31209,4.997369766235352,1,2,-3,-1,-4,-6,-5,-2,1756998789047358512
0,5.724850416,20250904111309047,None,31209,4.997369766235352,-1,1,0,-2,-1,2,4,-3,1756998789047556161
0,5.739718437,20250904111309062,None,31209,4.759399890899658,0,-3,3,-3,-1,2,1,-1,1756998789062343120
0,5.739830971,20250904111309062,None,31209,4.759399890899658,-1,-5,-1,-3,1,-2,-2,0,1756998789062489748
0,5.747161865,20250904111309070,None,31209,13.088349342346191,1,1,-1,3,2,-2,-1,0,1756998789069805145
0,5.747248173,20250904111309070,None,31209,13.088349342346191,-1,4,3,-1,3,-1,-2,-2,1756998789069948673
0,5.754675865,20250904111309077,None,31209,13.088349342346191,0,-3,-2,-1,-4,-2,-2,1,1756998789077358961
0,5.754766703,20250904111309077,None,31209,13.088349342346191,-1,-3,0,-3,-2,-1,-3,-5,1756998789077492475
0,5.769828796,20250904111309092,None,31209,10.470680236816406,2,-2,2,-1,-4,-1,-1,-1,1756998789092263698
0,5.77002883,20250904111309092,None,31209,10.470680236816406,-3,-5,-1,-1,-1,1,0,1,1756998789092387676
0,5.777420282,20250904111309100,None,31209,8.804889678955078,-2,2,-2,1,3,-1,-1,-2,1756998789099788904
0,5.7775969499999995,20250904111309100,None,31209,8.804889678955078,-2,-3,0,0,-3,-3,-2,1,1756998789099916219
0,5.784941673,20250904111309107,None,31209,8.09097957611084,2,-3,3,-1,0,-1,0,1,1756998789107319593
0,5.785121441,20250904111309107,None,31209,8.09097957611084,2,-1,1,-2,-1,0,-3,0,1756998789107459783
0,5.800011396,20250904111309122,None,31209,12.136469841003418,-2,-2,-4,2,-2,0,1,-2,1756998789122368574
0,5.800212622,20250904111309123,None,31209,12.136469841003418,-3,-2,-3,-1,-3,-2,-1,-3,1756998789122514724
0,5.807092428,20250904111309129,None,31209,5.235340118408203,1,0,-2,-2,0,0,6,-1,1756998789129722118
0,5.807211161,20250904111309130,None,31209,5.235340118408203,-3,-1,-2,-2,-1,-2,1,-2,1756998789129894495
0,5.814669609,20250904111309137,None,31209,13.564290046691895,-2,-3,-1,-2,-1,-3,-1,-1,1756998789137282609
0,5.814800024,20250904111309137,None,31209,13.564290046691895,2,-1,-1,-2,0,0,-3,-1,1756998789137405395
0,5.829726696,20250904111309152,None,31207,13.326319694519043,1,-2,-3,0,-1,-2,0,2,1756998789152312994
0,5.829882383,20250904111309152,None,31207,13.326319694519043,-2,0,-4,-3,-3,-3,0,2,1756998789152432441
0,5.837171078,20250904111309160,None,31206,5.949249744415283,2,1,1,0,-1,-3,-2,-2,1756998789159758567
0,5.83729887,20250904111309160,None,31206,5.949249744415283,-1,-1,-2,-1,2,1,0,-2,1756998789159876346
0,5.844657898,20250904111309167,None,31205,5.949249744415283,-2,-4,2,1,-1,-2,-1,-4,1756998789167318344
0,5.844753981,20250904111309167,None,31205,5.949249744415283,-1,0,-2,3,1,-4,-2,2,1756998789167450189
0,5.859731674,20250904111309182,None,31204,8.328949928283691,1,-2,0,1,0,-4,-1,-3,1756998789182322978
0,5.85987854,20250904111309182,None,31204,8.328949928283691,0,0,0,-4,-1,1,3,2,1756998789182460308
0,5.867187262,20250904111309190,None,31203,9.04286003112793,-4,1,-2,-2,0,-3,1,-2,1756998789189805746
0,5.867297649,20250904111309190,None,31203,9.04286003112793,0,-2,2,-3,1,1,-1,-1,1756998789189932107
0,5.874819517,20250904111309197,None,31201,11.660530090332031,0,4,-3,-1,-1,2,-1,-2,1756998789197433233
0,5.874931335,20250904111309197,None,31201,11.660530090332031,-5,-2,-5,0,0,-6,-7,-5,1756998789197609901
0,5.889692783,20250904111309212,None,31201,6.187219619750977,0,-6,-1,-2,2,4,5,2,1756998789212304353
0,5.8898370270000004,20250904111309212,None,31201,6.187219619750977,-3,-2,-1,0,-2,1,2,2,1756998789212429046
0,5.897218227,20250904111309220,None,31199,13.564290046691895,-2,-2,1,1,-1,-2,-4,-1,1756998789219805240
