gt,time_elapsed,current_time,current_task,motor_position,futek,emg0,emg1,emg2,emg3,emg4,emg5,emg6,emg7,emg_timer_stamp
0,0.037986279,20250904112457667,None,8,231.5447998046875,-3,-3,0,-3,-1,-1,0,-2,1756999497667171001
0,0.038196802,20250904112457667,None,8,231.5447998046875,0,1,0,5,2,-2,-1,0,1756999497667336225
0,0.053111077,20250904112457682,None,8,230.1169891357422,2,-2,-2,0,0,2,1,-3,1756999497682201862
0,0.053384066,20250904112457682,None,8,231.5447998046875,0,3,2,-2,-2,-1,0,-2,1756999497682511568
0,0.060432196,20250904112457689,None,8,231.5447998046875,-2,-1,0,-3,-3,-2,1,0,1756999497689671277
0,0.060570717,20250904112457690,None,8,231.5447998046875,-1,1,-2,-2,0,-4,-4,2,1756999497689807176
0,0.067766667,20250904112457697,None,8,230.1169891357422,-2,0,1,4,1,3,6,2,1756999497697072029
0,0.067865849,20250904112457697,None,8,230.1169891357422,-3,-2,-3,-4,0,-2,-1,0,1756999497697168588
0,0.082842112,20250904112457712,None,8,230.59292602539062,-4,-4,-4,4,9,1,1,-6,1756999497712071657
0,0.082959175,20250904112457712,None,8,230.59292602539062,1,1,-1,2,-1,1,-1,-4,1756999497712198495
0,0.090453863,20250904112457719,None,8,230.59292602539062,1,0,-1,-1,-4,-1,5,-1,1756999497719659328
0,0.090620518,20250904112457720,None,8,230.59292602539062,1,-1,-4,-5,-4,-4,1,2,1756999497719809532
0,0.098027945,20250904112457727,None,8,230.59292602539062,-2,-3,-1,-1,2,2,0,1,1756999497727210521
0,0.098177672,20250904112457727,None,8,230.59292602539062,1,0,1,0,0,-1,2,-1,1756999497727394819
0,0.114559412,20250904112457744,None,8,229.64105224609375,1,0,-2,0,0,1,3,3,1756999497743610382
0,0.114795685,20250904112457744,None,8,229.64105224609375,0,-3,1,-3,-1,-5,0,-1,1756999497743912220
0,0.120523215,20250904112457750,None,8,231.5447998046875,1,-1,-4,0,2,-1,-3,-4,1756999497749647617
0,0.120722533,20250904112457750,None,8,231.5447998046875,0,1,0,-2,-13,-19,-2,-4,1756999497749770641
0,0.127995015,20250904112457757,None,8,229.87901306152344,0,-3,3,-3,4,18,2,-1,1756999497757178306
0,0.128096342,20250904112457757,None,8,229.87901306152344,0,0,1,3,4,0,4,0,1756999497757262706
0,0.143187285,20250904112457772,None,8,231.3068389892578,-3,2,-3,-1,-4,-8,-3,0,1756999497772367715
0,0.143344641,20250904112457772,None,8,231.3068389892578,0,-2,-3,0,-1,-3,1,4,1756999497772521257
0,0.15027833,20250904112457779,None,8,229.87901306152344,1,1,-2,-1,-2,-3,0,0,1756999497779603004
0,0.150363922,20250904112457779,None,8,229.87901306152344,0,0,-1,-2,-2,-3,-5,-4,1756999497779729127
0,0.158145428,20250904112457787,None,8,230.83090209960938,2,2,0,-2,1,2,-3,0,1756999497787397623
0,0.158219099,20250904112457787,None,8,230.83090209960938,-1,0,0,1,1,-3,-1,-3,1756999497787556171
0,0.173049927,20250904112457802,None,8,230.59292602539062,0,-2,-3,-3,-1,-1,-1,-2,1756999497802246332
0,0.173186779,20250904112457802,None,8,230.59292602539062,0,-5,-1,-1,-4,2,1,-2,1756999497802385091
0,0.180613757,20250904112457810,None,8,230.59292602539062,-3,-2,-1,0,2,3,-1,1,1756999497809802770
0,0.180748701,20250904112457810,None,8,230.59292602539062,-1,-4,1,7,4,-2,1,2,1756999497809994935
0,0.18825531,20250904112457817,None,8,231.06886291503906,-1,-5,1,0,4,-1,-2,1,1756999497817200899
0,0.188500405,20250904112457818,None,8,231.06886291503906,0,1,-5,0,-4,-5,-1,-2,1756999497817389726
0,0.203037978,20250904112457832,None,8,231.3068389892578,-3,-5,-2,-2,-3,0,-1,-2,1756999497832213878
0,0.203185082,20250904112457832,None,8,231.3068389892578,0,-4,0,-1,-1,0,2,-2,1756999497832391977
0,0.210425139,20250904112457839,None,8,229.64105224609375,-1,0,-2,-1,-1,1,0,-1,1756999497839678764
0,0.210532904,20250904112457840,None,8,229.64105224609375,-2,-1,-5,-6,-1,-4,0,0,1756999497839831113
0,0.217778921,20250904112457847,None,8,229.64105224609375,1,0,2,-3,-5,-2,1,0,1756999497847077608
0,0.217846156,20250904112457847,None,8,229.64105224609375,-2,-4,-1,1,0,-1,-4,-3,1756999497847207307
0,0.23300314,20250904112457862,None,8,230.35494995117188,-4,-1,-3,0,0,2,2,-3,1756999497862254619
0,0.233111859,20250904112457862,None,8,230.35494995117188,0,-2,-1,0,-2,-3,2,1,1756999497862422227
0,0.240398407,20250904112457869,None,8,231.5447998046875,2,2,0,-5,-2,-1,-2,0,1756999497869683742
0,0.240493536,20250904112457869,None,8,231.5447998046875,-3,-4,0,-4,-5,-4,-1,-1,1756999497869822025
0,0.247906447,20250904112457877,None,8,230.59292602539062,-3,-3,-1,-1,4,-3,-2,0,1756999497877215147
0,0.248010397,20250904112457877,None,8,230.59292602539062,0,1,3,5,3,-2,-3,-2,1756999497877377033
0,0.262907744,20250904112457892,None,8,230.59292602539062,1,-2,-5,-2,-5,3,4,2,1756999497892205476
0,0.262991667,20250904112457892,None,8,230.59292602539062,0,0,-4,-2,3,2,2,-1,1756999497892357349
0,0.27858615,20250904112457908,None,8,229.87901306152344,0,-1,-1,-2,9,2,0,-1,1756999497907890081
0,0.278670073,20250904112457908,None,8,229.87901306152344,0,1,3,0,-5,-1,-1,-1,1756999497908028364
0,0.279273749,20250904112457908,None,8,229.87901306152344,-2,-3,-1,2,0,-2,-2,-2,1756999497908609867
0,0.279354573,20250904112457908,None,8,229.87901306152344,0,0,2,4,-2,-1,-1,-1,1756999497908728122
0,0.292993069,20250904112457922,None,8,229.64105224609375,-2,3,-4,-4,-2,-3,-1,-3,1756999497922163724
0,0.293093682,20250904112457922,None,8,229.64105224609375,-2,-1,-3,-3,0,2,3,1,1756999497922272682
0,0.300311089,20250904112457929,None,8,229.64105224609375,0,0,-1,-3,0,4,-5,-2,1756999497929604053
0,0.300439358,20250904112457929,None,8,229.64105224609375,0,-1,-4,-4,6,6,2,-2,1756999497929728746
0,0.308169604,20250904112457937,None,8,231.5447998046875,0,1,-3,1,-3,-8,0,-4,1756999497937448978
0,0.308260441,20250904112457937,None,8,231.5447998046875,0,-6,0,2,-2,-4,-3,-2,1756999497937609434
0,0.331106663,20250904112457960,None,8,230.35494995117188,0,0,-1,-4,-5,-1,-2,-1,1756999497960348129
0,0.331212998,20250904112457960,None,8,230.35494995117188,-3,0,-3,-2,3,-4,-1,-3,1756999497960482358
0,0.331734181,20250904112457961,None,8,230.35494995117188,-1,0,0,-3,-1,0,-8,0,1756999497961070775
0,0.331826926,20250904112457961,None,8,230.35494995117188,-2,-2,0,3,1,1,-2,0,1756999497961175918
0,0.345438242,20250904112457974,None,8,230.59292602539062,-1,-3,1,2,1,3,-1,-1,1756999497974702835
0,0.345534087,20250904112457975,None,8,230.59292602539062,-1,2,0,1,-3,-4,-4,-5,1756999497974841117
0,0.352936983,20250904112457982,None,8,231.06886291503906,1,-1,2,-1,-1,1,1,3,1756999497982182502
0,0.353026867,20250904112457982,None,8,231.06886291503906,3,3,0,-1,-3,-2,1,4,1756999497982250928
0,0.360347987,20250904112457989,None,8,230.1169891357422,-4,-3,-1,0,-4,-2,1,-4,1756999497989661693
0,0.360443592,20250904112457989,None,8,230.1169891357422,-2,-2,-1,-1,2,-3,-4,0,1756999497989793539
0,0.375444413,20250904112458004,None,8,229.87901306152344,-1,-1,-2,0,1,5,3,1,1756999498004722595
0,0.375530243,20250904112458005,None,8,229.87901306152344,2,2,-3,-1,-2,-2,0,-1,1756999498004868268
0,0.382952214,20250904112458012,None,8,229.87901306152344,0,3,2,0,1,-1,3,-2,1756999498012163400
0,0.383054972,20250904112458012,None,8,229.87901306152344,-1,-1,-4,-3,0,-2,1,-1,1756999498012267589
0,0.390337944,20250904112458019,None,8,231.5447998046875,0,-1,-1,0,-1,-2,-3,1,1756999498019653558
0,0.390429736,20250904112458019,None,8,231.5447998046875,-3,0,0,-1,1,0,-3,2,1756999498019789218
0,0.405460835,20250904112458034,None,8,231.5447998046875,1,-1,-4,-5,1,1,0,-4,1756999498034726858
0,0.405556679,20250904112458035,None,8,231.5447998046875,-1,-1,-1,0,2,1,1,3,1756999498034882068
0,0.412977696,20250904112458042,None,8,230.1169891357422,2,-1,-3,-1,-6,-3,-4,-2,1756999498042272090
0,0.41307211,20250904112458042,None,8,230.1169891357422,-2,0,1,0,-2,-1,-4,-1,1756999498042414903
0,0.420377016,20250904112458049,None,8,230.1169891357422,0,1,0,-6,-2,-1,-1,0,1756999498049685001
0,0.4205091,20250904112458050,None,8,230.1169891357422,-1,-2,-2,0,0,-1,0,-2,1756999498049821615
0,0.435464383,20250904112458064,None,8,230.59292602539062,1,1,-3,0,5,-1,0,1,1756999498064727783
0,0.435566426,20250904112458065,None,8,230.59292602539062,0,1,-3,-2,-2,0,0,0,1756999498064883708
0,0.442917824,20250904112458072,None,8,230.59292602539062,-2,0,-2,-8,-8,-2,-2,1,1756999498072170495
0,0.442991495,20250904112458072,None,8,230.59292602539062,1,0,-1,2,11,1,-1,-3,1756999498072263240
0,0.450276137,20250904112458079,None,8,231.3068389892578,-1,1,1,4,4,1,3,-1,1756999498079617023
0,0.450780154,20250904112458080,None,8,231.3068389892578,-1,3,-1,-2,-4,1,-1,1,1756999498079740524
0,0.465638876,20250904112458095,None,8,229.64105224609375,2,0,-1,-3,-6,-3,-3,0,1756999498094643115
0,0.465859413,20250904112458095,None,8,229.64105224609375,-5,-7,-3,-1,-3,-3,0,-1,1756999498094783544
0,0.47320199,20250904112458102,None,8,231.5447998046875,-1,-1,-1,-5,-1,3,-7,-1,1756999498102208137
0,0.473391056,20250904112458102,None,8,231.5447998046875,1,1,-3,3,4,11,7,0,1756999498102359294
0,0.480910063,20250904112458110,None,8,230.1169891357422,2,0,-2,-7,-5,-9,0,-1,1756999498109671592
0,0.48104167,20250904112458110,None,8,230.1169891357422,0,-5,-1,-3,-4,-4,-4,-2,1756999498109803915
0,0.495501757,20250904112458125,None,8,231.3068389892578,-1,-2,-2,-1,-2,-1,-2,-1,1756999498124546766
0,0.495685578,20250904112458125,None,8,230.83090209960938,-1,4,0,-2,3,0,-2,0,1756999498124661445
0,0.503515482,20250904112458133,None,8,230.83090209960938,-5,1,0,1,-2,0,-6,-3,1756999498132317543
0,0.503780127,20250904112458133,None,8,230.83090209960938,0,-1,3,-3,-4,-2,-2,-1,1756999498132480859
0,0.510899544,20250904112458140,None,8,231.06886291503906,2,-4,-6,-1,-3,-3,-1,-1,1756999498139702796
0,0.511060477,20250904112458140,None,8,231.06886291503906,-1,0,1,1,2,0,-1,0,1756999498139850139
0,0.525881768,20250904112458155,None,8,230.35494995117188,-2,-1,-1,0,-2,-2,0,-2,1756999498154647111
0,0.526081801,20250904112458155,None,8,230.35494995117188,-1,-3,-1,-1,-4,-2,-2,1,1756999498154794692
0,0.533385277,20250904112458162,None,8,231.3068389892578,0,0,-1,0,0,0,-3,0,1756999498162192344
0,0.533641816,20250904112458163,None,8,231.3068389892578,1,-3,1,4,-1,-1,-2,-1,1756999498162337779
0,0.540778876,20250904112458170,None,8,231.3068389892578,1,-3,-2,-2,-3,-2,-3,-1,1756999498169662237
0,0.540993691,20250904112458170,None,8,231.3068389892578,0,-1,0,-2,-3,-2,3,2,1756999498169800519
0,0.564116955,20250904112458193,None,8,229.87901306152344,-2,-3,-4,0,0,1,-5,-4,1756999498192898511
0,0.564346552,20250904112458193,None,8,229.87901306152344,-3,-1,-1,-1,0,-2,0,0,1756999498193065404
0,0.564501524,20250904112458194,None,8,229.87901306152344,0,-1,-3,-1,2,-3,-5,-4,1756999498193596363
0,0.564630509,20250904112458194,None,8,229.87901306152344,-2,0,3,1,1,1,3,4,1756999498193710088
0,0.570856095,20250904112458200,None,8,231.3068389892578,-1,-1,-2,3,1,-3,-6,-2,1756999498199652433
0,0.571102858,20250904112458200,None,8,231.3068389892578,1,-1,-2,-3,-2,-1,-5,-1,1756999498199796438
0,0.585979224,20250904112458215,None,8,230.35494995117188,0,0,-1,-1,1,1,5,1,1756999498214740991
0,0.58621955,20250904112458215,None,8,230.35494995117188,-1,-1,0,-3,1,-2,-1,-5,1756999498214899063
0,0.593317986,20250904112458222,None,8,231.06886291503906,1,1,-1,0,-2,0,-1,-4,1756999498222207069
0,0.593558312,20250904112458223,None,8,231.06886291503906,0,1,-2,-2,-3,-3,-2,0,1756999498222354650
0,0.600547314,20250904112458230,None,8,230.59292602539062,-2,2,-1,0,4,4,0,0,1756999498229670047
0,0.600691796,20250904112458230,None,8,230.59292602539062,-1,4,-2,1,-1,-4,2,0,1756999498229802846
0,0.61600256,20250904112458245,None,8,231.3068389892578,0,-1,-4,0,-17,-5,-2,-2,1756999498244743108
0,0.616239786,20250904112458245,None,8,231.3068389892578,0,-3,0,-1,11,1,-1,-3,1756999498244907617
0,0.623383284,20250904112458252,None,8,229.87901306152344,-5,0,0,4,1,1,-3,-2,1756999498252155542
0,0.623625994,20250904112458253,None,8,229.87901306152344,-4,1,-1,-1,-2,-2,-4,-1,1756999498252259731
0,0.630857706,20250904112458260,None,8,229.87901306152344,1,4,0,0,-1,0,-1,4,1756999498259611368
0,0.631101132,20250904112458260,None,8,229.87901306152344,2,-4,2,-1,-7,-17,-2,-5,1756999498259740591
0,0.645974398,20250904112458275,None,8,229.64105224609375,0,-4,-1,-5,2,14,0,0,1756999498274702310
0,0.646150589,20250904112458275,None,8,229.64105224609375,-2,-1,0,5,8,2,0,-1,1756999498274847984
0,0.653483391,20250904112458283,None,8,231.3068389892578,2,0,-4,-3,-5,-4,2,2,1756999498282203674
0,0.653779984,20250904112458283,None,8,231.3068389892578,1,0,2,1,-3,-1,0,0,1756999498282367944
0,0.660830975,20250904112458290,None,8,230.35494995117188,-5,-3,2,0,-4,-4,-3,-2,1756999498289642572
0,0.661046505,20250904112458290,None,8,230.35494995117188,0,1,-2,-6,-2,-5,0,-3,1756999498289769172
0,0.675913811,20250904112458305,None,8,231.3068389892578,1,-1,-3,0,-1,1,1,0,1756999498304686307
0,0.676116228,20250904112458305,None,8,231.3068389892578,0,-2,-3,-1,-2,-1,-4,-1,1756999498304838895
0,0.683320761,20250904112458312,None,8,230.59292602539062,-2,0,1,1,4,2,3,-2,1756999498312133550
0,0.683520556,20250904112458313,None,8,230.59292602539062,-2,0,-5,-1,-2,-1,0,0,1756999498312255144
0,0.690855742,20250904112458320,None,8,230.35494995117188,0,-3,-2,-4,-4,-1,-2,0,1756999498319595098
0,0.691186428,20250904112458320,None,8,230.35494995117188,-1,-2,-4,1,2,-1,-3,-2,1756999498319714307
0,0.706016064,20250904112458335,None,8,231.3068389892578,-1,-1,3,5,5,-2,1,1,1756999498334802389
0,0.706261158,20250904112458335,None,8,231.3068389892578,-4,-1,0,-4,-2,1,-5,1,1756999498334949016
0,0.713319779,20250904112458342,None,8,230.1169891357422,0,1,-2,0,-1,0,2,1,1756999498342251539
0,0.713539362,20250904112458343,None,8,230.1169891357422,2,-2,-1,-1,0,-2,-7,-1,1756999498342389106
0,0.720952511,20250904112458350,None,8,231.5447998046875,1,0,-2,-3,-1,-1,-1,-2,1756999498349713325
0,0.721170903,20250904112458350,None,8,231.5447998046875,-2,-2,-5,-1,0,-2,-3,0,1756999498349853754
0,0.736029387,20250904112458365,None,8,231.3068389892578,-2,-1,1,-1,1,-1,0,-3,1756999498364789247
0,0.736268521,20250904112458365,None,8,231.3068389892578,-2,-1,1,1,0,0,3,-2,1756999498364960908
0,0.743031502,20250904112458372,None,8,231.3068389892578,1,1,-2,1,2,-2,-3,-3,1756999498372148036
0,0.743242503,20250904112458372,None,8,231.3068389892578,0,0,1,-4,1,0,4,0,1756999498372305870
0,0.75033331,20250904112458379,None,8,230.1169891357422,1,-4,-1,0,-2,-3,1,0,1756999498379627466
0,0.750463248,20250904112458379,None,8,230.1169891357422,-1,2,1,1,0,-4,-1,0,1756999498379768371
0,0.766004563,20250904112458395,None,8,230.35494995117188,-1,-2,-2,1,0,1,-5,-2,1756999498395153045
0,0.766154766,20250904112458395,None,8,230.35494995117188,-1,0,0,-1,-1,1,0,0,1756999498395261526
0,0.772968769,20250904112458402,None,8,230.35494995117188,-1,-1,-2,-4,1,-1,1,-1,1756999498402176141
0,0.773149491,20250904112458402,None,8,230.35494995117188,-2,4,-1,-2,0,0,-2,-1,1756999498402357578
0,0.780523301,20250904112458410,None,8,230.35494995117188,0,-1,3,-2,3,0,-2,0,1756999498409741878
0,0.780780554,20250904112458410,None,8,231.06886291503906,-3,-1,-2,0,2,3,-2,-1,1756999498409924268
0,0.795412302,20250904112458424,None,8,230.1169891357422,2,1,0,4,3,3,3,0,1756999498424671649
0,0.795521021,20250904112458425,None,8,230.1169891357422,0,0,-4,-2,-14,-4,-1,-1,1756999498424777507
0,0.80292821,20250904112458432,None,8,231.5447998046875,-1,-2,-2,-7,0,-13,-1,-2,1756999498432200193
0,0.803020239,20250904112458432,None,8,231.5447998046875,1,1,-2,5,11,14,-1,0,1756999498432375669
0,0.81047678,20250904112458439,None,8,229.87901306152344,-3,-2,1,1,3,5,0,-1,1756999498439687013
0,0.810586691,20250904112458440,None,8,229.87901306152344,2,1,2,-1,-7,-7,0,1,1756999498439851045
0,0.82546258,20250904112458454,None,8,231.5447998046875,0,0,-1,-1,-5,-2,-4,-4,1756999498454710721
0,0.825587035,20250904112458455,None,8,231.5447998046875,-3,-2,-1,-1,-1,-5,-1,-5,1756999498454873800
0,0.832854271,20250904112458462,None,8,230.1169891357422,-1,-5,-5,-5,-1,-1,-3,-3,1756999498462144851
0,0.832940579,20250904112458462,None,8,230.1169891357422,-1,-3,-1,1,0,-1,1,1,1756999498462267160
0,0.840372324,20250904112458469,None,8,231.5447998046875,-2,2,0,0,2,-3,-3,-2,1756999498469684362
0,0.840460539,20250904112458469,None,8,231.5447998046875,-1,-1,1,-3,-1,-1,-2,-2,1756999498469816207
0,0.855400801,20250904112458484,None,8,230.83090209960938,-2,-3,0,-1,-1,1,-3,-2,1756999498484686613
0,0.855506659,20250904112458485,None,8,230.83090209960938,1,-3,-2,-5,-2,-1,0,-1,1756999498484833240
0,0.86305213,20250904112458492,None,8,230.83090209960938,-2,-6,-1,3,2,0,-1,-1,1756999498492335796
0,0.863151312,20250904112458492,None,8,230.83090209960938,-4,-3,-5,1,3,-1,-4,0,1756999498492482900
0,0.870319844,20250904112458499,None,8,231.06886291503906,2,1,0,-4,-4,-3,-1,-2,1756999498499618053
0,0.870484352,20250904112458499,None,8,231.06886291503906,-1,-3,-3,-1,-1,1,-1,-2,1756999498499752998
0,0.885493994,20250904112458515,None,8,231.5447998046875,0,0,0,-5,-1,1,0,-1,1756999498514739274
0,0.885600329,20250904112458515,None,8,231.5447998046875,-2,-4,-1,0,-1,1,-2,-4,1756999498514911174
0,0.892977238,20250904112458522,None,8,231.5447998046875,0,-3,0,-1,-1,-1,-3,-1,1756999498522250413
0,0.893089295,20250904112458522,None,8,231.5447998046875,-1,0,-1,-1,-1,-1,-1,-2,1756999498522389173
0,0.908355475,20250904112458537,None,8,231.5447998046875,0,-2,1,-1,0,-1,1,-1,1756999498537511587
0,0.90857935,20250904112458538,None,8,231.5447998046875,0,2,-1,-1,-1,-1,-2,-3,1756999498537669420
0,0.915432215,20250904112458544,None,8,229.64105224609375,-1,-4,0,-2,-3,-2,-2,0,1756999498544622421
0,0.915565968,20250904112458545,None,8,229.64105224609375,1,-1,-4,2,0,-1,3,2,1756999498544765472
0,0.923013687,20250904112458552,None,8,231.3068389892578,-1,1,-3,0,-1,-1,-5,-2,1756999498552151918
0,0.923182488,20250904112458552,None,8,231.3068389892578,-5,0,0,0,-1,-1,-3,0,1756999498552316904
0,0.93050623,20250904112458560,None,8,230.1169891357422,2,0,0,2,-4,-2,-1,-2,1756999498559665441
0,0.930682421,20250904112458560,None,8,230.1169891357422,0,-2,-2,-2,2,2,-1,0,1756999498559826612
0,0.945721627,20250904112458575,None,8,230.59292602539062,0,0,3,3,3,1,0,-1,1756999498574671506
0,0.945943833,20250904112458575,None,8,230.59292602539062,2,1,-3,-1,-3,-1,1,3,1756999498574836254
0,0.953267813,20250904112458582,None,8,230.83090209960938,0,1,0,-3,0,-2,-1,0,1756999498582291603
0,0.953455448,20250904112458582,None,8,230.83090209960938,-2,-5,-2,0,-5,-3,-3,-4,1756999498582421064
0,0.960510731,20250904112458590,None,8,230.1169891357422,-2,-4,0,-2,-3,-3,-2,0,1756999498589591503
0,0.960659027,20250904112458590,None,8,230.1169891357422,-4,2,1,0,-1,-1,-1,-1,1756999498589702129
0,0.975467444,20250904112458604,None,8,229.87901306152344,2,0,-1,-3,-1,-1,1,-1,1756999498604616403
0,0.975655318,20250904112458605,None,8,229.87901306152344,-2,0,-3,0,-3,-12,-3,0,1756999498604763984
0,0.983108759,20250904112458612,None,8,229.87901306152344,1,1,-1,0,6,18,1,-1,1756999498612111806
0,0.983357191,20250904112458612,None,8,229.87901306152344,-4,2,0,1,9,0,-1,-4,1756999498612267255
0,0.990602017,20250904112458620,None,8,231.3068389892578,1,-1,-1,-1,-5,-5,-3,-2,1756999498619653940
0,0.990824223,20250904112458620,None,8,231.3068389892578,0,-1,-2,-2,-7,-4,-3,1,1756999498619782447
0,1.005803109,20250904112458635,None,8,231.3068389892578,-1,5,0,1,-1,2,-1,1,1756999498634760618
0,1.005988121,20250904112458635,None,8,231.3068389892578,-3,-2,0,-1,-2,0,1,-1,1756999498634910106
0,1.021416664,20250904112458650,None,8,230.83090209960938,0,1,0,-3,-6,-6,-7,-5,1756999498650391340
0,1.021616698,20250904112458651,None,8,230.83090209960938,-1,0,0,4,3,0,4,-1,1756999498650569915
0,1.02180028,20250904112458651,None,8,230.83090209960938,0,-1,0,0,0,1,-2,2,1756999498651103734
0,1.021884203,20250904112458651,None,8,230.83090209960938,-1,-1,-1,0,0,0,2,-3,1756999498651250362
0,1.035781384,20250904112458665,None,8,230.83090209960938,0,0,1,0,3,2,-3,3,1756999498664707660
0,1.035985709,20250904112458665,None,8,230.83090209960938,1,-2,-2,-3,-1,1,0,1,1756999498664894819
0,1.043269158,20250904112458672,None,8,230.1169891357422,-1,2,-1,-1,-1,-3,-1,-1,1756999498672222614
0,1.043482066,20250904112458672,None,8,230.1169891357422,1,0,-1,1,-1,1,-3,-1,1756999498672427415
0,1.050445557,20250904112458679,None,8,231.3068389892578,1,-3,0,-3,-1,0,-1,1,1756999498679652690
0,1.050609112,20250904112458680,None,8,231.3068389892578,-3,-2,-4,-2,-1,0,1,-2,1756999498679804325
0,1.065765858,20250904112458695,None,8,229.87901306152344,-1,-5,4,-5,-1,0,-1,-2,1756999498695071935
0,1.065997601,20250904112458695,None,8,229.87901306152344,2,1,-6,0,0,3,0,0,1756999498695216894
0,1.073056937,20250904112458702,None,8,231.3068389892578,1,-4,-3,-1,-3,-4,-1,-1,1756999498702152490
0,1.073206425,20250904112458702,None,8,231.3068389892578,-2,-1,-4,-2,-1,-2,2,-1,1756999498702257633
0,1.080410004,20250904112458709,None,8,229.87901306152344,-1,1,2,0,1,2,1,-2,1756999498709643363
0,1.080531836,20250904112458710,None,8,229.87901306152344,-3,1,0,-1,2,-1,2,1,1756999498709783554
0,1.09569788,20250904112458725,None,8,230.1169891357422,-2,2,-3,-6,-1,-3,-1,-1,1756999498724776029
0,1.095859528,20250904112458725,None,8,230.1169891357422,-1,0,1,2,1,0,-4,-4,1756999498724949836
0,1.1029093269999999,20250904112458732,None,8,230.1169891357422,0,-1,-1,-4,1,3,3,1,1756999498732162714
0,1.103006125,20250904112458732,None,8,230.1169891357422,-3,-2,-3,0,-1,-3,1,1,1756999498732321023
0,1.110412598,20250904112458739,None,8,231.06886291503906,-1,-3,-1,1,-2,-7,-6,0,1756999498739603757
0,1.11052084,20250904112458740,None,8,231.06886291503906,-1,0,0,0,-3,0,1,-2,1756999498739731788
0,1.125382662,20250904112458754,None,8,230.35494995117188,-1,0,-1,0,-2,1,-1,-2,1756999498754669666
0,1.125481129,20250904112458754,None,8,230.35494995117188,1,0,0,1,1,-1,-3,-2,1756999498754805803
0,1.13284421,20250904112458762,None,8,231.3068389892578,-1,0,-4,0,2,0,-3,-5,1756999498762117385
0,1.132936478,20250904112458762,None,8,231.3068389892578,-1,-2,-1,-3,-3,-3,0,2,1756999498762251853
0,1.140514136,20250904112458770,None,8,231.3068389892578,0,-2,-1,2,-4,-1,-3,1,1756999498769767284
0,1.140617371,20250904112458770,None,8,231.3068389892578,-3,-4,0,1,2,-1,-3,-3,1756999498769968032
0,1.155455828,20250904112458784,None,8,231.5447998046875,1,3,1,-2,0,0,-2,0,1756999498784726858
0,1.155543089,20250904112458785,None,8,231.5447998046875,1,0,1,-6,-12,-4,-2,0,1756999498784873723
0,1.162920475,20250904112458792,None,8,229.87901306152344,-2,-2,-3,3,9,-9,0,2,1756999498792213916
0,1.163018942,20250904112458792,None,8,229.87901306152344,0,-3,-2,5,12,17,2,-2,1756999498792361021
0,1.177964449,20250904112458807,None,8,230.35494995117188,0,0,-1,-3,-7,-5,1,-2,1756999498807192325
0,1.178099394,20250904112458807,None,8,230.35494995117188,0,2,-1,3,-9,-8,1,1,1756999498807365655
0,1.185451031,20250904112458814,None,8,230.35494995117188,0,-1,1,-3,-1,1,-1,1,1756999498814692974
0,1.18557334,20250904112458815,None,8,230.35494995117188,-3,-4,0,-5,0,0,-2,-3,1756999498814874887
0,1.192915678,20250904112458822,None,8,231.06886291503906,-4,-2,-1,-1,1,-1,-2,0,1756999498822177886
0,1.193026781,20250904112458822,None,8,231.06886291503906,0,2,-1,-3,-4,-2,-3,-3,1756999498822324514
0,1.200403691,20250904112458829,None,8,230.35494995117188,-2,-5,0,-3,-4,-1,1,2,1756999498829681634
0,1.200536013,20250904112458830,None,8,230.35494995117188,-2,6,1,-1,-3,-3,-2,-1,1756999498829823017
0,1.21544981,20250904112458844,None,8,231.3068389892578,-1,-3,-3,1,1,-3,0,-1,1756999498844680547
0,1.2155878549999999,20250904112458845,None,8,231.3068389892578,-1,-1,3,0,1,2,0,0,1756999498844851255
0,1.223097563,20250904112458852,None,8,231.3068389892578,0,0,-1,-2,-3,-2,2,-3,1756999498852222204
0,1.223203659,20250904112458852,None,8,231.3068389892578,-2,-3,-1,4,0,-2,-2,-4,1756999498852376461
0,1.230383873,20250904112458859,None,8,229.64105224609375,1,2,-4,1,0,1,-2,-3,1756999498859681844
0,1.230498791,2025090411245886,None,8,229.64105224609375,0,0,0,1,-2,-1,0,0,1756999498859860420
0,1.24541092,20250904112458874,None,8,229.87901306152344,3,-3,0,-5,-2,-3,-6,0,1756999498874673604
0,1.245530367,20250904112458875,None,8,229.87901306152344,-1,1,0,-2,-2,2,6,2,1756999498874827146
0,1.252904654,20250904112458882,None,8,231.5447998046875,1,-2,2,1,-1,-1,1,0,1756999498882153987
0,1.25297165,20250904112458882,None,8,231.5447998046875,0,-3,-5,3,-3,-3,1,-4,1756999498882253885
0,1.26034832,20250904112458889,None,8,231.5447998046875,-2,-2,-1,-3,0,-4,-2,-2,1756999498889631748
0,1.260460377,20250904112458889,None,8,231.5447998046875,-1,-1,0,-2,0,2,0,5,1756999498889766216
0,1.2848873140000001,20250904112458914,None,8,230.83090209960938,-3,-1,-1,-5,-3,-1,3,1,1756999498914120197
0,1.285005808,20250904112458914,None,8,230.83090209960938,-2,0,-3,4,0,-3,-2,-2,1756999498914291620
0,1.2856044770000001,20250904112458915,None,8,230.83090209960938,-4,-5,-2,-3,1,-6,-2,-3,1756999498914972305
0,1.28570056,20250904112458915,None,8,230.83090209960938,-1,-4,-3,1,-5,-3,-3,-2,1756999498915089130
0,1.298084021,20250904112458927,None,8,230.35494995117188,-2,-1,0,0,2,-1,-1,-3,1756999498927217483
0,1.298294306,20250904112458927,None,8,231.06886291503906,-1,-1,1,3,1,3,3,-3,1756999498927393198
0,1.3052716260000001,20250904112458934,None,8,231.06886291503906,0,1,2,-2,2,0,-3,0,1756999498934580802
0,1.305378914,20250904112458934,None,8,231.06886291503906,-1,-3,-5,-1,-2,-1,0,-1,1756999498934712409
0,1.3128943450000001,20250904112458942,None,8,230.1169891357422,2,-1,-2,-2,0,-1,-2,-1,1756999498942171096
0,1.312982798,20250904112458942,None,8,230.1169891357422,-2,-3,-4,-1,-2,-4,2,-5,1756999498942336559
0,1.327919484,20250904112458957,None,8,229.64105224609375,-3,-1,0,-4,-2,-1,-4,-4,1756999498957202672
0,1.328011036,20250904112458957,None,8,229.64105224609375,-4,-1,-2,-5,-8,-16,3,1,1756999498957375288
0,1.335340023,20250904112458964,None,8,229.64105224609375,1,0,-1,-3,3,16,-1,-1,1756999498964611291
0,1.335416794,20250904112458964,None,8,229.64105224609375,1,0,1,2,3,3,1,0,1756999498964739799
0,1.350356818,20250904112458979,None,8,229.64105224609375,-2,-5,-4,0,-4,-5,-4,0,1756999498979586601
0,1.350492001,20250904112458979,None,8,229.64105224609375,0,1,-1,-2,-6,-7,-3,-4,1756999498979708671
0,1.358076096,20250904112458987,None,8,231.3068389892578,0,-3,-3,2,1,0,1,-3,1756999498987369537
0,1.358168841,20250904112458987,None,8,231.3068389892578,0,0,1,-2,0,0,-3,0,1756999498987493515
0,1.36531663,20250904112458994,None,8,230.35494995117188,-3,-8,-2,-7,-11,-1,-2,2,1756999498994612455
0,1.365384102,20250904112458994,None,8,230.35494995117188,-1,1,1,4,15,3,-4,-1,1756999498994745492
0,1.372930765,20250904112459002,None,8,230.83090209960938,-2,0,-1,0,-5,-3,-1,-1,1756999499002154827
0,1.373004437,20250904112459002,None,8,230.83090209960938,1,-1,1,1,-1,-3,2,-2,1756999499002260446
0,1.388138056,20250904112459017,None,8,230.59292602539062,2,2,0,-1,-2,3,2,0,1756999499017146825
0,1.388310194,20250904112459017,None,8,230.59292602539062,-1,0,2,5,2,0,1,-3,1756999499017262220
0,1.395617009,20250904112459025,None,8,229.87901306152344,-2,1,-4,-2,0,-3,-8,-5,1756999499024633884
0,1.395837069,20250904112459025,None,8,229.87901306152344,-1,-1,-1,-4,-3,-3,1,-1,1756999499024766445
0,1.40320611,20250904112459032,None,8,231.3068389892578,-1,-1,-1,-3,0,-1,-4,-1,1756999499032170295
0,1.403392077,20250904112459032,None,8,231.3068389892578,-1,-2,-1,0,-1,-1,2,-4,1756999499032260417
0,1.418133498,20250904112459047,None,8,231.5447998046875,-3,0,0,0,-1,-1,0,-1,1756999499047223567
0,1.418313265,20250904112459047,None,8,231.5447998046875,-4,2,-2,1,0,-1,2,0,1756999499047435283
0,1.425562382,20250904112459055,None,8,231.5447998046875,2,1,-3,-3,-2,-5,-1,0,1756999499054776430
0,1.42571497,20250904112459055,None,8,231.5447998046875,-1,0,-4,-5,-7,-1,-5,-2,1756999499054929256
0,1.4328229430000001,20250904112459062,None,8,230.1169891357422,0,0,1,6,7,2,-2,0,1756999499062110424
0,1.432891369,20250904112459062,None,8,230.1169891357422,-1,-3,-2,1,1,-5,0,0,1756999499062256574
0,1.456370354,20250904112459085,None,8,231.06886291503906,2,1,-1,0,1,-1,-2,0,1756999499085354566
0,1.456599236,20250904112459086,None,8,231.06886291503906,1,-3,2,1,-1,-2,0,2,1756999499085529327
0,1.456830979,20250904112459086,None,8,231.06886291503906,-2,-2,-3,-1,-3,0,-3,-2,1756999499086075305
0,1.456936121,20250904112459086,None,8,231.06886291503906,0,0,-3,-1,-4,0,-5,-3,1756999499086192607
0,1.463091851,20250904112459092,None,8,230.59292602539062,0,0,0,0,-3,-2,-1,-1,1756999499092130899
0,1.463282824,20250904112459092,None,8,230.59292602539062,-3,-3,0,-5,-3,1,2,-2,1756999499092290639
0,1.4782168869999999,20250904112459107,None,8,229.87901306152344,-1,-2,-4,4,3,-5,1,3,1756999499107188224
0,1.478402853,20250904112459107,None,8,229.87901306152344,-3,-3,4,0,-2,-1,5,2,1756999499107381343
0,1.485601664,20250904112459115,None,8,231.3068389892578,-2,-6,-2,1,1,0,-2,1,1756999499114625215
0,1.4858045579999999,20250904112459115,None,8,231.3068389892578,-2,1,1,-1,0,-1,0,1,1756999499114758253
0,1.493024588,20250904112459122,None,8,229.87901306152344,-2,-3,-3,-2,-2,-1,0,-2,1756999499122119426
0,1.4931755070000001,20250904112459122,None,8,229.87901306152344,-2,-3,-1,-1,-4,1,-1,0,1756999499122238874
0,1.508121491,20250904112459137,None,8,231.5447998046875,1,0,-1,-1,-1,-1,3,1,1756999499137350559
0,1.508380413,20250904112459137,None,8,231.5447998046875,-3,-2,-2,-1,-1,2,-2,0,1756999499137486696
0,1.523612976,20250904112459153,None,8,231.5447998046875,-1,-1,-3,3,1,1,-3,-1,1756999499152811050
0,1.52375269,20250904112459153,None,8,231.5447998046875,1,-2,-6,-3,-3,0,2,-1,1756999499152944087
0,1.524252653,20250904112459153,None,8,231.5447998046875,0,3,0,-2,1,-1,-1,0,1756999499153585433
0,1.524615765,20250904112459154,None,8,231.5447998046875,0,-1,-5,-3,-1,-4,-3,1,1756999499153710365
0,1.538107396,20250904112459167,None,8,230.59292602539062,3,1,0,1,2,-2,2,0,1756999499167197704
0,1.538375855,20250904112459167,None,8,230.59292602539062,-1,-2,-1,-5,1,2,2,-3,1756999499167363405
0,1.545511723,20250904112459175,None,8,230.59292602539062,-3,-4,1,0,-3,-2,-2,0,1756999499174603939
0,1.545683861,20250904112459175,None,8,230.59292602539062,2,0,-1,-6,0,-1,5,0,1756999499174721240
0,1.553047657,20250904112459182,None,8,230.59292602539062,0,0,0,0,-1,-1,-2,-3,1756999499182119846
0,1.55326891,20250904112459182,None,8,230.59292602539062,0,0,-1,-2,-9,-3,-2,0,1756999499182257890
0,1.5682396889999999,20250904112459197,None,8,231.06886291503906,-2,2,0,5,7,-2,-4,-2,1756999499197273492
0,1.568411827,20250904112459197,None,8,231.06886291503906,1,0,1,-2,5,1,2,2,1756999499197417736
0,1.5756623749999998,20250904112459205,None,8,229.64105224609375,0,-1,-2,2,-9,-14,-2,-3,1756999499204677104
0,1.575884581,20250904112459205,None,8,229.64105224609375,-2,0,-3,-1,5,18,6,3,1756999499204825162
0,1.583071947,20250904112459212,None,8,229.64105224609375,-1,0,0,0,-1,2,-1,-1,1756999499212141513
0,1.583315373,20250904112459212,None,8,231.3068389892578,2,-2,0,-1,-8,-9,-1,-3,1756999499212265729
0,1.59828353,20250904112459227,None,8,229.403076171875,-1,-1,-2,-4,-8,-5,-5,0,1756999499227211713
0,1.598481179,20250904112459227,None,8,229.403076171875,-1,-2,-1,1,2,-1,0,-2,1756999499227398157
0,1.605548382,20250904112459235,None,8,231.3068389892578,-3,-2,1,0,2,4,-1,0,1756999499234585523
0,1.605791569,20250904112459235,None,8,231.3068389892578,0,0,0,-1,-2,-1,-8,-3,1756999499234704732
0,1.61316371,20250904112459242,None,8,229.87901306152344,-2,-2,2,0,2,-1,0,3,1756999499242136716
0,1.6133558749999999,20250904112459242,None,8,229.87901306152344,-1,1,-1,-1,-3,-5,0,-2,1756999499242259979
0,1.628264904,20250904112459257,None,8,231.06886291503906,0,0,-1,-1,-1,2,-3,-1,1756999499257271528
0,1.628478766,20250904112459257,None,8,231.06886291503906,-4,4,0,-2,-2,0,-2,-5,1756999499257430553
0,1.635462046,20250904112459264,None,8,230.59292602539062,-4,-1,1,4,-4,-3,-5,-1,1756999499264632463
0,1.635656357,20250904112459265,None,8,230.59292602539062,-1,0,-2,-3,-4,0,0,0,1756999499264770984
0,1.643177748,20250904112459272,None,8,230.35494995117188,1,5,-1,-1,-3,2,1,1,1756999499272173643
0,1.643360854,20250904112459272,None,8,230.35494995117188,0,-2,1,1,4,2,-1,-1,1756999499272326231
0,1.65852046,20250904112459288,None,8,229.64105224609375,0,-1,-2,-4,-2,-1,-1,-2,1756999499287500381
0,1.658723116,20250904112459288,None,8,229.64105224609375,-1,-2,-1,1,-1,-4,-1,-1,1756999499287671566
0,1.665581227,20250904112459295,None,8,229.64105224609375,-2,-4,-2,-8,-5,-2,-2,-1,1756999499294613838
0,1.665779114,20250904112459295,None,8,229.64105224609375,-2,1,-1,1,0,-1,3,-1,1756999499294743061
0,1.673157215,20250904112459302,None,8,231.5447998046875,-1,-4,-1,2,2,2,-3,-1,1756999499302127122
0,1.673331023,20250904112459302,None,8,231.5447998046875,1,1,2,-3,-3,2,-4,-1,1756999499302270889
0,1.6880378729999999,20250904112459317,None,8,231.3068389892578,-2,-1,-3,1,-4,-1,0,-1,1756999499317201614
0,1.688212633,20250904112459317,None,8,231.3068389892578,-1,-2,-1,-3,-2,-3,-2,-2,1756999499317373991
0,1.695438385,20250904112459324,None,8,230.1169891357422,0,-2,1,-4,4,1,0,-2,1756999499324702262
0,1.6955845360000001,20250904112459325,None,8,230.1169891357422,-1,-1,-1,1,-2,-4,-2,0,1756999499324847221
0,1.703033686,20250904112459332,None,8,230.1169891357422,-1,-2,-1,-3,0,1,-2,-1,1756999499332278490
0,1.7031619550000001,20250904112459332,None,8,230.1169891357422,0,0,0,-5,-5,-3,-2,-1,1756999499332423686
0,1.7180185319999999,20250904112459347,None,8,230.35494995117188,-3,1,2,1,-5,-4,4,-1,1756999499347169637
0,1.718405009,20250904112459347,None,8,230.35494995117188,0,0,0,0,1,-2,-2,0,1756999499347308874
0,1.725494624,20250904112459355,None,8,230.59292602539062,-1,-1,0,-3,4,1,0,1,1756999499354711771
0,1.725632668,20250904112459355,None,8,230.59292602539062,-1,-2,-1,0,-2,-1,0,0,1756999499354931354
0,1.732784987,20250904112459362,None,8,231.06886291503906,0,-3,2,0,0,-2,-1,0,1756999499362094163
0,1.732861519,20250904112459362,None,8,231.06886291503906,-3,2,-2,0,-1,-1,-1,-4,1756999499362211227
0,1.747954607,20250904112459377,None,8,229.87901306152344,-2,1,-4,-1,-3,-1,1,-1,1756999499377194643
0,1.7480640410000001,20250904112459377,None,8,229.87901306152344,-1,-4,-2,-2,1,-1,0,-1,1756999499377364635
0,1.755416632,20250904112459384,None,8,231.5447998046875,-1,-2,-5,0,-2,-1,-2,0,1756999499384691953
0,1.7555043700000001,20250904112459385,None,8,231.5447998046875,1,2,2,3,5,0,0,1,1756999499384836673
0,1.7629709249999999,20250904112459392,None,8,230.1169891357422,-2,0,4,-1,0,0,-1,-1,1756999499392249107
0,1.7630796439999998,20250904112459392,None,8,230.1169891357422,-1,-4,2,-1,-15,-13,-3,-2,1756999499392411470
0,1.778191805,20250904112459407,None,8,230.35494995117188,1,-1,-5,-6,13,17,1,1,1756999499407198905
0,1.778445244,20250904112459407,None,8,230.35494995117188,-1,-3,-3,5,6,-2,0,-1,1756999499407378911
0,1.785795212,20250904112459415,None,8,230.35494995117188,0,0,2,3,-2,-5,-1,2,1756999499414676189
0,1.786015272,20250904112459415,None,8,230.35494995117188,2,-1,0,-5,-7,-4,-1,-1,1756999499414847373
0,1.793030978,20250904112459422,None,8,231.3068389892578,0,-1,-5,-2,-3,-3,-3,-1,1756999499422137737
0,1.7931401729999998,20250904112459422,None,8,231.3068389892578,-2,1,2,-1,-3,-1,-2,1,1756999499422256469
0,1.808302164,20250904112459437,None,8,230.83090209960938,0,-1,-2,3,2,0,-1,0,1756999499437472105
0,1.808508635,20250904112459438,None,8,230.83090209960938,-2,1,1,-1,-3,-1,0,-2,1756999499437630176
0,1.815568686,20250904112459445,None,8,231.06886291503906,-2,1,0,-1,0,-2,2,1,1756999499444723367
0,1.815783978,20250904112459445,None,8,231.06886291503906,-2,1,0,0,-1,0,-1,-1,1756999499444898366
0,1.8305308820000001,20250904112459460,None,8,230.1169891357422,-3,-1,-3,-2,1,3,-2,0,1756999499459678649
0,1.830712796,20250904112459460,None,8,230.1169891357422,-3,-3,-1,0,-3,-2,1,-3,1756999499459839582
0,1.8378748900000001,20250904112459467,None,8,231.5447998046875,1,-1,-2,1,2,1,-4,-2,1756999499467123508
0,1.838016272,20250904112459467,None,8,231.5447998046875,-1,1,2,-1,-2,0,6,2,1756999499467272281
0,1.845490933,20250904112459475,None,8,229.64105224609375,1,-1,-2,-4,-1,-2,1,1,1756999499474698543
0,1.845682145,20250904112459475,None,8,229.64105224609375,-2,-4,-1,-1,-8,-2,-2,-4,1756999499474860906
0,1.8528893,20250904112459482,None,8,231.78277587890625,1,-3,-4,1,2,0,3,0,1756999499482137918
0,1.853003025,20250904112459482,None,8,231.78277587890625,1,-1,-2,2,3,0,-5,-2,1756999499482258319
0,1.867977381,20250904112459497,None,8,229.87901306152344,1,0,0,-3,-1,1,3,-2,1756999499497210979
0,1.868119002,20250904112459497,None,8,229.87901306152344,0,-3,-1,-2,-5,-4,0,-1,1756999499497376918
0,1.875328541,20250904112459504,None,8,231.06886291503906,2,1,1,2,0,2,2,2,1756999499504610300
0,1.875440359,20250904112459504,None,8,231.06886291503906,-1,2,-1,-2,2,-2,-3,-3,1756999499504759311
0,1.883079768,20250904112459512,None,8,230.35494995117188,-1,0,2,-2,2,-2,-3,-3,1756999499512239933
0,1.883234024,20250904112459512,None,8,230.35494995117188,0,-1,-3,-5,-5,0,0,0,1756999499512448310
0,1.89803195,20250904112459527,None,8,231.06886291503906,-1,-2,-2,1,-1,4,1,0,1756999499527207374
0,1.89818883,20250904112459527,None,8,231.06886291503906,0,-5,1,-4,1,0,0,1,1756999499527379751
0,1.9054162510000001,20250904112459534,None,8,230.1169891357422,0,-1,-1,1,0,-2,1,1,1756999499534670591
0,1.9055573940000001,20250904112459535,None,8,230.1169891357422,-1,0,-1,-1,-1,0,0,1,1756999499534822225
0,1.9129121310000001,20250904112459542,None,8,230.1169891357422,-4,-3,1,-4,-3,-1,0,-1,1756999499542121171
0,1.913045884,20250904112459542,None,8,230.1169891357422,3,3,3,3,2,-1,0,-1,1756999499542254686
0,1.928026915,20250904112459557,None,8,229.64105224609375,0,1,-1,0,-2,1,-1,1,1756999499557246923
0,1.9282174109999999,20250904112459557,None,8,229.64105224609375,-4,1,-4,-3,-6,-3,-1,-3,1756999499557387351
0,1.935279608,20250904112459564,None,8,231.3068389892578,-2,-2,0,-2,-4,-5,-4,0,1756999499564597845
0,1.935405493,20250904112459564,None,8,231.3068389892578,-5,1,1,1,9,14,1,0,1756999499564698696
0,1.958448172,20250904112459587,None,8,231.3068389892578,-2,-2,-1,4,-3,-6,-1,0,1756999499587663650
0,1.958620072,20250904112459588,None,8,231.3068389892578,-3,-1,0,0,-6,-4,0,0,1756999499587832689
0,1.966288805,20250904112459595,None,8,230.35494995117188,1,-1,-4,-1,-3,-1,0,-1,1756999499595510005
0,1.966420651,20250904112459595,None,8,230.35494995117188,-1,-1,0,0,-4,3,0,0,1756999499595693826
0,1.966695547,20250904112459596,None,8,230.35494995117188,-1,-1,0,0,8,3,-1,1,1756999499596045494
0,1.966798544,20250904112459596,None,8,230.35494995117188,-1,3,1,2,6,2,-4,-5,1756999499596155405
0,1.973190785,20250904112459602,None,8,230.59292602539062,-3,-2,-2,-4,-7,-4,0,0,1756999499602395534
0,1.973317147,20250904112459602,None,8,230.59292602539062,-1,1,-1,0,-2,-1,0,-1,1756999499602591753
0,1.9881513119999998,20250904112459617,None,8,230.83090209960938,0,0,-2,0,-4,-2,-3,-1,1756999499617353439
0,1.988296748,20250904112459617,None,8,230.83090209960938,-1,-1,0,0,2,0,0,-1,1756999499617535591
0,1.995618344,20250904112459625,None,8,230.1169891357422,-1,0,0,0,-3,2,2,-1,1756999499624817609
0,1.995782137,20250904112459625,None,8,230.1169891357422,0,0,0,0,1,-1,3,1,1756999499625014066
0,2.018799305,20250904112459648,None,8,231.5447998046875,-2,1,-1,-2,-5,2,-3,-1,1756999499647975683
0,2.01894188,20250904112459648,None,8,231.5447998046875,0,-3,-1,-3,-4,-4,-2,-1,1756999499648172616
0,2.019476414,20250904112459648,None,8,231.5447998046875,2,-1,5,1,0,2,-1,1,1756999499648766279
0,2.019585848,20250904112459649,None,8,231.5447998046875,-1,-1,-5,2,1,-1,-3,-4,1756999499648957014
0,2.025887013,20250904112459655,None,8,231.5447998046875,1,-1,1,-1,2,-1,-1,0,1756999499654788970
0,2.026085139,20250904112459655,None,8,231.5447998046875,-2,-2,-1,-4,-3,2,0,1,1756999499654990196
0,2.040296078,20250904112459669,None,8,231.3068389892578,0,-1,-1,-4,-1,0,0,0,1756999499669432640
0,2.040369034,20250904112459669,None,8,231.3068389892578,-2,-5,2,4,2,-2,0,-4,1756999499669513940
0,2.04800725,20250904112459677,None,8,230.1169891357422,1,-2,0,-4,-3,0,3,-3,1756999499677107095
0,2.048163414,20250904112459677,None,8,230.1169891357422,-5,1,-4,3,4,0,-3,-5,1756999499677281618
0,2.055485726,20250904112459685,None,8,230.83090209960938,1,-3,1,-2,-1,-1,-4,-1,1756999499684607982
0,2.055700779,20250904112459685,None,8,230.83090209960938,0,1,-4,-4,-1,-4,1,-2,1756999499684737205
0,2.063328982,20250904112459692,None,8,230.83090209960938,-4,-4,0,1,1,-4,0,-1,1756999499692115545
0,2.06361413,20250904112459693,None,8,230.83090209960938,1,2,-2,-3,-3,-1,4,1,1756999499692245960
0,2.078279496,20250904112459707,None,8,230.35494995117188,-2,0,1,2,-1,2,2,2,1756999499707107782
0,2.078501463,20250904112459708,None,8,230.35494995117188,-1,1,5,1,-2,-1,-4,1,1756999499707215309
0,2.085653067,20250904112459715,None,8,231.5447998046875,-1,-1,-4,0,-3,0,-1,-4,1756999499714570760
0,2.086066485,20250904112459715,None,8,231.5447998046875,-1,-2,1,-1,-1,2,1,-2,1756999499714667558
0,2.09341383,20250904112459722,None,8,230.1169891357422,1,0,0,2,-2,-2,-1,-2,1756999499722177982
0,2.093635798,20250904112459723,None,8,230.1169891357422,0,-2,3,2,-1,1,3,-3,1756999499722321033
0,2.108381987,20250904112459737,None,8,231.5447998046875,-3,-1,-2,-3,-11,-18,-3,1,1756999499737212657
0,2.108580351,20250904112459738,None,8,231.5447998046875,-1,2,-1,-3,7,17,0,1,1756999499737326145
0,2.115592242,20250904112459745,None,8,230.1169891357422,1,-2,-1,3,0,3,-1,0,1756999499744657754
0,2.115700245,20250904112459745,None,8,230.1169891357422,-5,0,-2,-2,-1,-4,0,-1,1756999499744774818
0,2.13109231,20250904112459760,None,8,230.1169891357422,-1,-1,-4,4,-1,-5,-3,0,1756999499759840488
0,2.131306172,20250904112459760,None,8,230.1169891357422,1,0,2,-1,1,-3,0,-1,1756999499760033607
0,2.138555289,20250904112459768,None,8,230.83090209960938,0,0,-3,0,-4,0,-1,0,1756999499767357349
0,2.138780356,20250904112459768,None,8,230.83090209960938,-3,-1,-3,-5,-4,-1,-2,-4,1756999499767533302
0,2.146103382,20250904112459775,None,8,230.83090209960938,1,0,2,6,3,-3,-1,-1,1756999499774821043
0,2.146316767,20250904112459775,None,8,230.83090209960938,-2,0,-1,0,4,-3,2,-2,1756999499775013208
0,2.153550387,20250904112459783,None,8,230.59292602539062,-1,-2,-2,-2,2,-1,-2,0,1756999499782357215
0,2.153773785,20250904112459783,None,8,230.59292602539062,1,-1,-2,-5,-1,-1,-3,0,1756999499782531261
0,2.168412447,20250904112459797,None,8,231.3068389892578,0,-1,0,-1,1,0,-1,-3,1756999499797366857
0,2.168622256,20250904112459798,None,8,231.3068389892578,-1,-1,0,2,-2,-2,-3,3,1756999499797551155
0,2.175762654,20250904112459805,None,8,229.87901306152344,-3,0,-2,0,2,2,2,1,1756999499804776430
0,2.175960541,20250904112459805,None,8,229.87901306152344,-2,5,-2,-5,-1,-2,-1,-2,1756999499804963350
0,2.183338642,20250904112459812,None,8,229.87901306152344,-2,-6,0,-5,-1,-2,-2,-2,1756999499812323093
0,2.183529377,20250904112459813,None,8,229.87901306152344,0,0,0,3,5,1,-4,-2,1756999499812505960
0,2.197995901,20250904112459827,None,8,229.87901306152344,1,-1,-2,3,2,1,-1,0,1756999499827139854
0,2.198121786,20250904112459827,None,8,229.87901306152344,1,0,1,-1,-5,-3,-2,-1,1756999499827249765
0,2.205356598,20250904112459834,None,8,231.5447998046875,0,-1,1,-5,0,1,1,-2,1756999499834550857
0,2.20548296,20250904112459834,None,8,231.5447998046875,-2,-1,-1,0,1,-1,0,-2,1756999499834678888
0,2.220877409,20250904112459850,None,8,231.06886291503906,-2,1,-1,0,-3,-1,-2,1,1756999499849756956
0,2.22109747,20250904112459850,None,8,231.06886291503906,-4,1,1,0,-1,-1,-1,-2,1756999499849932193
0,2.228082657,20250904112459857,None,8,231.06886291503906,0,1,-1,0,-1,-2,0,-3,1756999499857099294
0,2.228339434,20250904112459857,None,8,230.35494995117188,1,1,-2,-3,-2,-1,-1,1,1756999499857215642
0,2.2433030609999998,20250904112459872,None,8,230.35494995117188,0,1,1,-2,1,-1,-2,-1,1756999499872207641
0,2.243542672,20250904112459873,None,8,230.35494995117188,0,0,-3,-2,-2,3,0,-1,1756999499872368335
0,2.25083375,20250904112459880,None,8,231.3068389892578,-2,3,1,2,-1,0,3,1,1756999499879664897
0,2.25109458,20250904112459880,None,8,231.3068389892578,-3,-3,0,-3,-6,-1,-2,0,1756999499879794836
0,2.258234024,20250904112459887,None,8,229.87901306152344,0,2,-1,0,4,-2,-1,-3,1756999499887319326
0,2.258426428,20250904112459887,None,8,229.87901306152344,3,2,1,4,6,4,0,2,1756999499887385129
0,2.265836716,20250904112459895,None,8,231.5447998046875,0,1,0,-5,-6,-10,0,2,1756999499894608497
0,2.266054154,20250904112459895,None,8,231.5447998046875,1,-1,1,-6,3,13,1,-2,1756999499894726753
0,2.280675412,20250904112459910,None,8,229.64105224609375,1,1,-3,3,7,4,4,-1,1756999499909616708
0,2.281203509,20250904112459910,None,8,229.64105224609375,1,0,-3,-2,-1,-8,-4,-3,1756999499909743070
0,2.288266659,20250904112459917,None,8,231.5447998046875,-1,4,-2,-4,-2,0,0,1,1756999499917097568
0,2.288502932,20250904112459918,None,8,231.5447998046875,-3,1,0,0,-5,-1,-2,1,1756999499917198419
0,2.295710087,20250904112459925,None,8,229.87901306152344,-2,-3,-2,-4,-2,-1,-1,0,1756999499924557924
0,2.295943261,20250904112459925,None,8,229.87901306152344,-1,-1,0,1,1,1,-1,-4,1756999499924674272
0,2.310659409,20250904112459940,None,8,231.06886291503906,-1,-4,2,2,-4,-3,-2,0,1756999499939629554
0,2.3110020159999998,20250904112459940,None,8,231.06886291503906,-1,0,-2,4,-2,-4,0,-2,1756999499939786672
0,2.318281174,20250904112459947,None,8,230.35494995117188,1,2,1,-2,2,3,2,2,1756999499947122097
0,2.318495989,20250904112459948,None,8,230.35494995117188,0,1,2,1,-1,-2,-7,-4,1756999499947243928
0,2.325639487,20250904112459955,None,8,230.59292602539062,1,-1,-1,-1,-2,1,0,-4,1756999499954577207
0,2.325882435,20250904112459955,None,8,230.59292602539062,2,-1,-1,-4,-4,-1,1,2,1756999499954697132
0,2.340478421,20250904112459969,None,8,230.1169891357422,-1,-2,-2,0,-2,-3,-6,-4,1756999499969546556
0,2.340631247,20250904112459970,None,8,230.1169891357422,1,-5,2,3,3,1,0,-4,1756999499969671487
0,2.347821474,20250904112459977,None,8,230.1169891357422,1,0,0,1,2,1,-2,1,1756999499977021932
0,2.347942829,20250904112459977,None,8,230.1169891357422,-3,-5,-5,-3,-1,1,1,0,1756999499977148056
0,2.355551958,20250904112459985,None,8,231.5447998046875,-2,-5,1,-2,0,-4,-4,-3,1756999499984652519
0,2.355804921,20250904112459985,None,8,231.5447998046875,-1,2,2,0,-3,-1,0,3,1756999499984822511
0,2.370542765,20250904112500000,None,8,231.5447998046875,0,-1,-1,-1,1,3,-3,1,1756999499999670505
0,2.3707852369999998,20250904112500000,None,8,231.5447998046875,-1,1,-1,1,2,2,-1,-1,1756999499999839782
0,2.378122568,20250904112500007,None,8,229.87901306152344,-1,-3,-2,1,-4,-1,1,0,1756999500007186412
0,2.3782873159999998,20250904112500007,None,8,229.87901306152344,1,-2,-2,3,-2,-2,3,-1,1756999500007340431
0,2.385667324,20250904112500015,None,8,229.87901306152344,-5,1,3,0,4,1,-4,0,1756999500014634847
0,2.386096955,20250904112500015,None,8,231.5447998046875,-2,-4,-3,-1,5,0,-1,-2,1756999500014766454
0,2.409029007,20250904112500038,None,8,230.59292602539062,-1,-2,2,-1,1,1,2,0,1756999500037842273
0,2.409246683,20250904112500038,None,8,230.59292602539062,-1,2,-1,-1,-3,-3,1,2,1756999500037988901
0,2.409412384,20250904112500038,None,8,230.59292602539062,0,-2,-1,0,-1,0,-1,-2,1756999500038599491
0,2.409574032,20250904112500039,None,8,230.59292602539062,0,3,-2,0,-1,-2,-1,0,1756999500038711547
0,2.415586472,20250904112500045,None,8,230.83090209960938,-1,-3,2,0,0,0,0,-3,1756999500044729709
0,2.415810109,20250904112500045,None,8,230.83090209960938,0,0,0,1,0,-6,3,-1,1756999500044881105
0,2.4305136210000002,20250904112500060,None,8,230.1169891357422,0,-4,-1,-4,-3,-1,-5,-5,1756999500059693574
0,2.430678606,20250904112500060,None,8,230.1169891357422,-1,0,4,-2,2,1,-1,0,1756999500059843778
0,2.4380202300000002,20250904112500067,None,8,231.5447998046875,0,-4,-1,-1,-3,-2,-1,0,1756999500067170381
0,2.4381828309999998,20250904112500067,None,8,231.5447998046875,-1,-1,-1,-6,-3,-2,-3,-1,1756999500067355155
0,2.445462704,20250904112500074,None,8,230.1169891357422,0,1,-1,3,0,-4,-4,-2,1756999500074670553
0,2.445616484,20250904112500075,None,8,230.1169891357422,-3,-2,0,0,0,1,0,-3,1756999500074816942
0,2.460452795,20250904112500089,None,8,229.87901306152344,0,1,-4,-3,-1,-4,0,1,1756999500089657068
0,2.460617543,20250904112500090,None,8,229.87901306152344,0,-1,-1,-1,-8,-16,-1,-3,1756999500089803218
0,2.467864991,20250904112500097,None,8,229.87901306152344,-2,-4,0,0,7,15,-2,-4,1756999500097141504
0,2.467986346,20250904112500097,None,8,229.87901306152344,-1,0,-1,0,-2,0,2,0,1756999500097262859
0,2.475388289,20250904112500104,None,8,231.3068389892578,-1,3,-1,1,-2,-3,2,0,1756999500104626417
0,2.475539685,20250904112500105,None,8,231.3068389892578,1,-4,1,-1,1,-4,-1,-2,1756999500104761838
0,2.490418196,20250904112500119,None,8,230.59292602539062,0,-5,-4,-5,-6,-1,-3,-3,1756999500119640350
0,2.49060297,20250904112500120,None,8,230.59292602539062,-2,0,-1,1,-3,0,1,4,1756999500119797468
0,2.497888327,20250904112500127,None,8,230.59292602539062,3,0,-1,-2,1,-1,-1,-2,1756999500127126932
0,2.49801755,20250904112500127,None,8,230.59292602539062,-1,-5,-2,-2,2,-1,-3,-3,1756999500127273797
0,2.505436182,20250904112500134,None,8,230.59292602539062,-3,-2,-1,0,-2,0,4,-3,1756999500134665250
0,2.505587101,20250904112500135,None,8,230.59292602539062,1,2,-1,0,2,1,-4,-1,1756999500134804964
0,2.520299912,20250904112500149,None,8,231.3068389892578,-2,-1,-2,-1,-4,-3,-3,0,1756999500149559259
0,2.520422936,20250904112500149,None,8,231.3068389892578,-2,-3,-3,0,2,1,-1,1,1756999500149692058
0,2.5281488899999998,20250904112500157,None,8,229.64105224609375,1,0,-1,0,0,-1,-4,-1,1756999500157307624
0,2.528317929,20250904112500157,None,8,229.64105224609375,-2,-3,-2,0,3,1,1,-1,1756999500157482147
0,2.535487175,20250904112500164,None,8,231.78277587890625,2,3,1,0,-2,-3,1,0,1756999500164634943
0,2.535614968,20250904112500165,None,8,231.78277587890625,-2,-4,-6,-5,-3,-4,-3,-1,1756999500164741039
0,2.550504685,20250904112500180,None,8,229.87901306152344,1,-1,1,4,4,-1,1,3,1756999500179687261
0,2.550667048,20250904112500180,None,8,229.87901306152344,-2,-2,-1,-4,0,-3,-3,-2,1756999500179848909
0,2.558147431,20250904112500187,None,8,230.83090209960938,0,1,-3,0,-2,2,1,1,1756999500187343120
0,2.558292151,20250904112500187,None,8,230.83090209960938,-2,0,-1,-4,-3,-3,0,0,1756999500187561273
0,2.565516949,20250904112500195,None,8,230.1169891357422,0,-1,-3,-2,2,-1,-5,0,1756999500194648742
0,2.565665961,20250904112500195,None,8,230.1169891357422,2,0,-3,1,-3,-3,1,-1,1756999500194840669
0,2.58041811,20250904112500209,None,8,231.06886291503906,0,-3,1,-2,0,3,4,1,1756999500209625005
0,2.580550671,20250904112500210,None,8,231.06886291503906,-5,-2,-1,-2,-2,-1,0,-1,1756999500209761142
0,2.5879600050000002,20250904112500217,None,8,231.06886291503906,0,-1,-2,3,0,-2,2,0,1756999500217204332
0,2.588127613,20250904112500217,None,8,231.06886291503906,1,0,-1,1,-1,-1,2,1,1756999500217394351
0,2.5954411029999997,20250904112500224,None,8,230.1169891357422,1,-1,1,-2,-1,-1,-3,1,1756999500224639177
0,2.59556818,20250904112500225,None,8,230.1169891357422,1,-4,-1,-7,-10,-7,-2,0,1756999500224769115
0,2.610527039,20250904112500240,None,8,229.403076171875,-3,-2,-2,-1,12,3,-1,0,1756999500239685297
0,2.610667467,20250904112500240,None,8,229.403076171875,-2,-2,-2,3,1,1,-7,-4,1756999500239843606
0,2.617799044,20250904112500247,None,8,231.5447998046875,-2,-2,-3,-1,-6,0,4,2,1756999500247083187
0,2.61789465,20250904112500247,None,8,231.5447998046875,-2,-2,1,0,-4,0,2,-2,1756999500247202157
0,2.625405312,20250904112500254,None,8,231.5447998046875,-2,-1,2,-1,-1,0,-2,-1,1756999500254648685
0,2.625564576,20250904112500255,None,8,231.5447998046875,-4,-3,-5,3,-1,-3,-1,0,1756999500254798173
0,2.6486122610000002,20250904112500278,None,8,229.87901306152344,0,3,1,2,-3,-1,-4,-1,1756999500277816057
0,2.648756981,20250904112500278,None,8,229.87901306152344,-3,1,1,-3,-10,-19,-2,-1,1756999500277956724
0,2.6492471699999998,20250904112500278,None,8,229.87901306152344,-1,-3,-1,-3,6,13,-3,0,1756999500278575897
0,2.649389744,20250904112500278,None,8,229.87901306152344,1,2,-1,0,3,1,2,-1,1756999500278707265
0,2.6553802490000002,20250904112500284,None,8,230.83090209960938,2,-1,-3,-1,-4,-8,1,0,1756999500284632682
0,2.655513525,20250904112500285,None,8,230.83090209960938,0,0,0,1,-1,-3,-1,-2,1756999500284753561
0,2.678630352,20250904112500308,None,8,230.1169891357422,-2,-8,-1,-2,-3,0,0,0,1756999500307820558
0,2.678792239,20250904112500308,None,8,230.1169891357422,-1,-1,0,0,-3,2,-1,-2,1756999500307964324
0,2.679248095,20250904112500308,None,8,230.1169891357422,2,3,-2,-3,0,1,-1,4,1756999500308582305
0,2.6793608669999998,20250904112500308,None,8,230.1169891357422,1,-2,-1,1,0,2,2,-2,1756999500308692932
0,2.685371161,20250904112500314,None,8,231.5447998046875,0,-6,-2,-3,-4,-1,-1,-1,1756999500314598560
0,2.685492516,20250904112500314,None,8,231.5447998046875,-4,-1,-1,1,1,0,-1,-5,1756999500314706802
0,2.700475455,20250904112500329,None,8,231.5447998046875,0,1,0,-1,0,2,-2,-3,1756999500329650163
0,2.700637341,20250904112500330,None,8,231.5447998046875,1,2,1,-3,-1,-4,-2,-2,1756999500329787731
0,2.708042622,20250904112500337,None,8,231.5447998046875,0,-2,-3,-6,-3,-6,2,0,1756999500337109565
0,2.708159685,20250904112500337,None,8,231.5447998046875,0,0,0,6,1,0,-2,-2,1756999500337223768
0,2.71539259,20250904112500344,None,8,230.1169891357422,-2,-2,0,3,0,1,0,0,1756999500344629526
0,2.715519667,20250904112500345,None,8,230.1169891357422,0,-2,-1,-2,-2,-4,-2,-1,1756999500344749450
0,2.730409384,20250904112500359,None,8,230.1169891357422,-2,0,1,1,-3,-2,0,-3,1756999500359627008
0,2.730534554,20250904112500360,None,8,230.1169891357422,-1,3,0,1,0,2,2,-1,1756999500359755039
0,2.737960101,20250904112500367,None,8,230.83090209960938,-3,1,3,-3,-1,1,-1,-2,1756999500367168426
0,2.738069535,20250904112500367,None,8,230.83090209960938,1,-3,3,-3,0,0,0,0,1756999500367263793
0,2.745512724,20250904112500375,None,8,230.1169891357422,-1,5,-2,-4,-3,-2,0,4,1756999500374760150
0,2.745655775,20250904112500375,None,8,230.1169891357422,0,0,0,-4,-3,-2,-1,-1,1756999500374880075
0,2.7603561880000003,20250904112500389,None,8,230.1169891357422,-1,-2,0,6,4,1,0,-2,1756999500389610290
0,2.760471821,20250904112500389,None,8,230.1169891357422,-2,-2,-5,4,-1,-1,2,0,1756999500389734029
0,2.767849923,20250904112500397,None,8,231.06886291503906,-1,-3,-2,-4,-1,-3,-6,-4,1756999500397138357
0,2.76795578,20250904112500397,None,8,231.06886291503906,-1,-2,3,3,0,1,0,1,1756999500397257328
0,2.775296927,20250904112500404,None,8,230.1169891357422,-1,-1,-5,0,-2,-1,-2,-1,1756999500404566764
0,2.775409937,20250904112500404,None,8,230.1169891357422,4,-1,0,0,-1,0,1,-1,1756999500404683351
0,2.790434599,20250904112500419,None,8,231.5447998046875,-2,-1,0,-1,-7,-5,-5,-1,1756999500419652938
0,2.7905712129999998,20250904112500420,None,8,231.5447998046875,-1,0,-4,0,5,0,0,-2,1756999500419779777
0,2.797842741,20250904112500427,None,8,229.87901306152344,1,0,1,1,4,-1,1,-1,1756999500427119016
0,2.797947169,20250904112500427,None,8,229.87901306152344,0,-1,-5,-1,-2,0,-1,-1,1756999500427241563
0,2.8053646089999997,20250904112500434,None,8,231.3068389892578,1,1,0,-1,-3,-1,-3,-1,1756999500434616804
0,2.8054790499999998,20250904112500434,None,8,231.3068389892578,4,0,-5,-6,-4,-3,0,1,1756999500434737682
0,2.820437432,20250904112500449,None,8,231.06886291503906,-1,-1,-3,0,3,1,-3,-3,1756999500449635982
0,2.820581675,20250904112500450,None,8,231.06886291503906,1,-1,0,-2,0,1,0,-1,1756999500449776887
0,2.827808857,20250904112500457,None,8,231.06886291503906,-3,-7,-5,0,1,-5,2,3,1756999500457080125
0,2.827930212,20250904112500457,None,8,231.06886291503906,-2,-1,-3,-1,-2,-8,-2,-4,1756999500457185745
0,2.835357428,20250904112500464,None,8,230.59292602539062,1,1,5,0,1,6,-8,0,1756999500464637994
0,2.835538864,20250904112500465,None,8,230.59292602539062,-1,-1,-1,1,5,6,3,0,1756999500464827537
0,2.850431204,20250904112500479,None,8,231.3068389892578,0,0,-1,-1,-3,-6,2,-3,1756999500479657173
0,2.850559473,20250904112500480,None,8,231.3068389892578,-2,0,2,-3,-6,-2,-4,-1,1756999500479824066
0,2.857974053,20250904112500487,None,8,230.1169891357422,0,1,-2,3,1,-2,-3,-2,1756999500487155199
0,2.858066559,20250904112500487,None,8,230.1169891357422,1,-1,3,-3,-2,-1,1,-4,1756999500487254381
0,2.865385533,20250904112500494,None,8,231.78277587890625,2,0,-1,4,-1,2,-1,-1,1756999500494574069
0,2.865495444,20250904112500494,None,8,231.78277587890625,-4,-3,-1,-2,3,1,0,2,1756999500494689464
0,2.88032794,20250904112500509,None,8,229.64105224609375,-1,-2,-1,-1,-1,-2,-2,0,1756999500509574890
0,2.880457878,20250904112500509,None,8,229.64105224609375,0,-1,-3,-3,0,0,-3,1,1756999500509729385
0,2.887851477,20250904112500517,None,8,231.5447998046875,-2,-5,-2,-2,-3,0,-2,1,1756999500517100334
0,2.8879384999999997,20250904112500517,None,8,231.5447998046875,1,1,1,-1,2,-1,3,0,1756999500517223834
0,2.902862549,20250904112500532,None,8,231.3068389892578,-2,-2,1,-5,-4,-1,-2,-3,1756999500532130479
0,2.902988196,20250904112500532,None,8,231.3068389892578,-2,-2,0,1,4,-4,1,0,1756999500532261371
0,2.910554886,20250904112500540,None,8,231.3068389892578,-1,2,-1,-2,-2,-3,-1,-1,1756999500539735555
0,2.9107019899999997,20250904112500540,None,8,231.3068389892578,0,1,-4,-3,-3,-2,-3,-1,1756999500539913892
0,2.917850256,20250904112500547,None,8,230.83090209960938,-5,-3,-2,-2,0,1,-4,-1,1756999500547145128
0,2.918029309,20250904112500547,None,8,230.83090209960938,-4,-6,0,2,0,2,-4,4,1756999500547335386
0,2.925578118,20250904112500555,None,8,230.59292602539062,-1,8,3,-2,-3,1,0,-4,1756999500554705858
0,2.925765992,20250904112500555,None,8,230.59292602539062,-1,-3,-4,-3,-1,0,0,-1,1756999500554888248
0,2.9403936870000003,20250904112500569,None,8,229.87901306152344,2,0,0,2,2,-4,1,-1,1756999500569659948
0,2.9404990680000003,20250904112500570,None,8,229.87901306152344,-1,0,0,0,1,1,-4,0,1756999500569834470
0,2.956006527,20250904112500585,None,8,231.5447998046875,1,-1,3,-2,-4,-1,-4,-1,1756999500585323095
0,2.956091166,20250904112500585,None,8,231.5447998046875,0,-4,-3,0,-3,1,-1,-2,1756999500585455179
0,2.956793309,20250904112500586,None,8,231.5447998046875,-1,0,0,-1,-2,-1,4,1,1756999500586087942
0,2.956880808,20250904112500586,None,8,231.5447998046875,1,0,1,0,-4,-1,2,0,1756999500586204528
0,2.970515967,20250904112500600,None,8,231.3068389892578,1,-1,0,-1,2,-2,-3,0,1756999500599576950
0,2.970700741,20250904112500600,None,8,231.3068389892578,0,0,-1,4,13,5,1,-1,1756999500599696874
0,2.978011132,20250904112500607,None,8,229.87901306152344,-1,0,-3,-3,-3,1,0,-2,1756999500607041835
0,2.97817874,20250904112500607,None,8,229.87901306152344,-2,2,1,0,-6,-4,-1,-3,1756999500607151269
0,2.985290528,20250904112500614,None,8,229.87901306152344,-1,0,1,-2,0,0,-1,-1,1756999500614565134
0,2.985445023,20250904112500614,None,8,229.87901306152344,-1,0,-4,-1,-3,-2,-3,1,1756999500614676713
0,3.000589848,20250904112500630,None,8,230.59292602539062,0,-4,-2,-4,0,7,-1,2,1756999500629588127
0,3.000803233,20250904112500630,None,8,230.59292602539062,-3,-1,1,1,3,7,2,-2,1756999500629714250
0,3.008042574,20250904112500637,None,8,230.59292602539062,1,-1,-1,-1,-4,-8,-1,0,1756999500637042760
0,3.008237362,20250904112500637,None,8,230.59292602539062,-2,-2,-2,1,-4,-6,1,-1,1756999500637152433
0,3.015425206,20250904112500644,None,8,231.06886291503906,-1,-1,0,3,-2,-3,2,-1,1756999500644544363
0,3.015577078,20250904112500645,None,8,231.06886291503906,3,0,2,-3,0,0,-3,1,1756999500644651889
0,3.030692578,20250904112500660,None,8,230.35494995117188,-4,0,-7,-2,-1,-1,-2,-1,1756999500659807205
0,3.031172753,20250904112500660,None,8,230.35494995117188,-4,-1,-3,-6,-4,0,0,0,1756999500660016059
0,3.038363934,20250904112500667,None,8,231.3068389892578,-1,-2,0,-4,-5,-4,-2,-2,1756999500667282342
0,3.038529635,20250904112500668,None,8,231.3068389892578,-1,-2,-4,7,3,4,0,-5,1756999500667469024
0,3.046001912,20250904112500675,None,8,229.64105224609375,-1,-2,-2,-1,-1,0,1,0,1756999500674866914
0,3.046189547,20250904112500675,None,8,229.64105224609375,0,-1,-1,-2,-1,-6,-4,0,1756999500675060749
0,3.06098342,20250904112500690,None,8,229.64105224609375,1,3,0,-6,-3,0,-1,1,1756999500689925670
0,3.061183691,20250904112500690,None,8,229.64105224609375,2,0,-3,-4,1,-1,4,0,1756999500690121650
0,3.0766830450000002,20250904112500706,None,8,231.06886291503906,-2,-1,4,0,0,-1,1,-2,1756999500705760240
0,3.076946736,20250904112500706,None,8,231.06886291503906,-1,0,-1,-4,-1,1,-1,-1,1756999500705979347
0,3.077237606,20250904112500706,None,8,231.06886291503906,2,-2,-2,-3,-3,-4,-2,-4,1756999500706573009
0,3.077377558,20250904112500706,None,8,231.06886291503906,-5,-4,1,0,0,-3,0,-2,1756999500706728458
0,3.090715647,20250904112500720,None,8,230.59292602539062,1,-3,-1,1,0,-3,-3,-2,1756999500719938039
0,3.090834856,20250904112500720,None,8,230.59292602539062,-2,1,-1,-3,1,2,0,-1,1756999500720151901
0,3.098259688,20250904112500727,None,8,230.59292602539062,-1,4,1,-4,-5,-1,0,-3,1756999500727514028
0,3.098362208,20250904112500727,None,8,230.59292602539062,0,-1,-2,-1,-1,-2,1,0,1756999500727720022
0,3.113389492,20250904112500742,None,8,230.1169891357422,-1,-3,-1,0,2,2,-2,0,1756999500742542505
0,3.113608837,20250904112500743,None,8,231.06886291503906,-2,-1,-4,3,-3,-3,-1,-2,1756999500742777824
0,3.12076211,20250904112500750,None,8,231.06886291503906,-4,-4,-1,-5,-5,-5,-1,-1,1756999500750004291
0,3.12096715,20250904112500750,None,8,231.06886291503906,-2,-2,-3,3,1,0,1,3,1756999500750207662
0,3.127860308,20250904112500757,None,8,229.87901306152344,0,0,-1,-3,3,3,1,0,1756999500757161617
0,3.127958536,20250904112500757,None,8,229.87901306152344,1,-1,1,0,-2,-2,3,-1,1756999500757334470
0,3.135331393,20250904112500764,None,8,231.3068389892578,-1,0,-3,4,0,0,-1,-4,1756999500764638662
0,3.135405541,20250904112500764,None,8,231.3068389892578,0,-1,-2,0,0,-3,-4,-1,1756999500764769792
0,3.150409937,20250904112500779,None,8,229.87901306152344,-5,-2,-3,2,0,-1,-1,-2,1756999500779655218
0,3.150529385,20250904112500780,None,8,229.87901306152344,0,3,-1,-7,-5,-1,2,1,1756999500779848814
0,3.157955647,20250904112500787,None,8,231.3068389892578,-1,-2,-2,0,-5,3,-3,-4,1756999500787088155
0,3.158033848,20250904112500787,None,8,231.3068389892578,1,-3,1,0,3,1,-5,-2,1756999500787208795
0,3.17292285,20250904112500802,None,8,231.3068389892578,2,0,0,-2,2,0,2,1,1756999500802172183
0,3.173027039,20250904112500802,None,8,231.3068389892578,-1,2,2,-3,-10,-11,-2,-2,1756999500802358865
0,3.180537939,20250904112500810,None,8,231.06886291503906,-1,-3,-3,1,7,17,1,-2,1756999500809664011
0,3.180705786,20250904112500810,None,8,231.06886291503906,0,3,0,-4,-13,-4,-3,0,1756999500809850692
0,3.187856436,20250904112500817,None,8,231.06886291503906,3,1,2,-1,8,-5,2,0,1756999500817108631
0,3.1879580020000002,20250904112500817,None,8,231.06886291503906,-3,-1,-1,0,4,2,-2,-4,1756999500817264556
0,3.202936411,20250904112500832,None,8,231.06886291503906,2,-3,0,1,-3,-1,-1,-2,1756999500832134246
0,3.203088284,20250904112500832,None,8,231.06886291503906,0,0,0,-1,-1,-2,-1,-3,1756999500832269430
0,3.21020341,20250904112500839,None,8,229.64105224609375,1,-1,0,-1,-2,-4,-3,-3,1756999500839522361
0,3.210291863,20250904112500839,None,8,229.64105224609375,1,4,-1,1,2,2,3,0,1756999500839634656
0,3.225439549,20250904112500854,None,8,231.3068389892578,-1,-4,-2,0,-2,-3,-2,2,1756999500854662179
0,3.225970269,20250904112500855,None,8,229.64105224609375,-4,1,-1,3,5,5,-1,-2,1756999500854805946
0,3.233027459,20250904112500862,None,8,229.64105224609375,-2,-8,1,0,-1,1,2,2,1756999500862076520
0,3.233142376,20250904112500862,None,8,229.64105224609375,1,-2,-5,-2,-4,1,-1,2,1756999500862195014
0,3.240828038,20250904112500870,None,8,231.5447998046875,-2,-1,-5,1,-1,-2,-1,-1,1756999500870047569
0,3.241211415,20250904112500870,None,8,231.5447998046875,2,-2,0,0,1,3,0,-2,1756999500870274066
0,3.248260498,20250904112500877,None,8,230.35494995117188,-1,-3,0,-2,-4,1,-2,2,1756999500877502918
0,3.24836278,20250904112500877,None,8,230.35494995117188,1,-2,-2,-4,-4,-4,0,-1,1756999500877662420
0,3.262843609,20250904112500892,None,8,230.35494995117188,-3,5,-2,1,1,-2,-2,-2,1756999500892082929
0,3.2629385,20250904112500892,None,8,230.35494995117188,-1,-4,-4,0,-4,0,3,1,1756999500892222404
0,3.270457268,20250904112500899,None,8,230.35494995117188,-5,-1,-1,-3,0,0,1,-2,1756999500899687528
0,3.270565987,20250904112500900,None,8,230.35494995117188,1,-1,-4,-4,-4,-2,-1,0,1756999500899844646
0,3.2779331210000002,20250904112500907,None,8,230.35494995117188,2,-1,1,0,-1,-4,1,-1,1756999500907123565
0,3.278066874,20250904112500907,None,8,230.35494995117188,2,-2,0,1,-3,-1,0,-2,1756999500907270431
0,3.292882681,20250904112500922,None,8,229.87901306152344,1,-3,-1,-2,-1,-2,0,1,1756999500922096729
0,3.292995453,20250904112500922,None,8,229.87901306152344,-2,-1,-3,-2,-5,1,-5,-1,1756999500922216892
0,3.300176144,20250904112500929,None,8,231.5447998046875,1,-5,-1,2,4,-1,1,1,1756999500929486036
0,3.300262452,20250904112500929,None,8,231.5447998046875,3,1,-1,-1,0,-2,-2,1,1756999500929611682
0,3.307913304,20250904112500937,None,8,231.5447998046875,-3,-1,2,2,0,-1,-3,-3,1756999500937052011
0,3.308000088,20250904112500937,None,8,231.5447998046875,-2,-3,-2,-3,-3,-4,0,-1,1756999500937193870
0,3.32295394,20250904112500952,None,8,231.5447998046875,-1,0,-2,-3,-4,-1,-6,0,1756999500952152490
0,3.323079348,20250904112500952,None,8,231.5447998046875,0,1,-1,-2,3,1,-4,-3,1756999500952336788
0,3.339286805,20250904112500968,None,8,231.06886291503906,-3,2,-1,-1,-5,0,0,1,1756999500968478918
0,3.339477063,20250904112500968,None,8,231.06886291503906,2,1,1,5,6,3,0,0,1756999500968676567
0,3.345356703,20250904112500974,None,8,231.06886291503906,0,-1,0,2,1,-1,0,-1,1756999500974616527
0,3.345517874,20250904112500975,None,8,231.06886291503906,-1,3,2,-2,-3,-2,2,-2,1756999500974761962
0,3.352886916,20250904112500982,None,8,230.59292602539062,1,0,-1,-2,-6,-1,4,2,1756999500982136726
0,3.353016854,20250904112500982,None,8,230.59292602539062,0,-1,0,-2,2,2,-1,-3,1756999500982267141
0,3.360396386,20250904112500989,None,8,230.35494995117188,-5,-1,1,0,0,0,0,-1,1756999500989673137
0,3.360492707,20250904112500989,None,8,230.35494995117188,0,0,-1,-2,-1,0,-2,-4,1756999500989842891
0,3.367805481,20250904112500997,None,8,231.06886291503906,0,0,0,-1,-8,-7,-3,-1,1756999500997099161
0,3.367910862,20250904112500997,None,8,231.06886291503906,-3,-4,-5,1,7,14,0,-2,1756999500997220277
0,3.382832051,20250904112501012,None,8,230.35494995117188,3,-2,0,2,-2,-5,2,1,1756999501012083292
0,3.383000136,20250904112501012,None,8,231.3068389892578,2,1,1,0,-1,-3,-2,-1,1756999501012209892
0,3.390315295,20250904112501019,None,8,231.3068389892578,-3,-4,-7,-1,0,0,2,-2,1756999501019616603
0,3.390428067,20250904112501019,None,8,231.3068389892578,-2,-4,-4,-3,-5,-1,-1,-4,1756999501019736051
0,3.397793293,20250904112501027,None,8,229.64105224609375,0,0,0,-4,4,-1,-3,-1,1756999501027070045
0,3.397895813,20250904112501027,None,8,229.64105224609375,1,-6,1,-2,7,-3,-3,-2,1756999501027191400
0,3.412827015,20250904112501042,None,8,230.1169891357422,-5,-5,-5,-1,-3,1,-4,-2,1756999501042077779
0,3.412982464,20250904112501042,None,8,230.1169891357422,-1,-2,0,-1,-4,-4,2,-1,1756999501042187929
0,3.420429468,20250904112501049,None,8,231.06886291503906,0,1,0,0,-3,-1,-1,1,1756999501049664258
0,3.420570374,20250904112501050,None,8,231.06886291503906,1,-4,-2,-1,-8,-3,-2,0,1756999501049832344
0,3.427903414,20250904112501057,None,8,231.06886291503906,-6,0,-2,-2,2,1,-2,1,1756999501057146787
0,3.428034783,20250904112501057,None,8,231.06886291503906,-1,2,-4,-3,-2,-4,0,2,1756999501057278156
0,3.442925215,20250904112501072,None,8,230.35494995117188,1,1,-2,-4,-2,-1,-2,-1,1756999501072104692
0,3.443088532,20250904112501072,None,8,230.35494995117188,-1,0,1,2,1,3,-7,-8,1756999501072296857
0,3.4504470830000002,20250904112501079,None,8,230.59292602539062,0,-1,-1,-4,-4,-3,-1,-3,1756999501079643964
0,3.450603247,20250904112501080,None,8,230.59292602539062,-3,-1,-3,-2,-3,1,1,-1,1756999501079806804
0,3.458223582,20250904112501087,None,8,229.87901306152344,-1,1,1,0,0,0,2,0,1756999501087120532
0,3.458626747,20250904112501088,None,8,229.87901306152344,0,0,0,-2,-2,-1,-1,-1,1756999501087316751
0,3.47309947,20250904112501102,None,8,231.3068389892578,-1,-5,-2,-1,-5,3,1,0,1756999501102153062
0,3.473316193,20250904112501102,None,8,231.3068389892578,-2,1,-3,-3,0,0,0,-3,1756999501102264881
0,3.480343819,20250904112501109,None,8,230.1169891357422,4,-1,1,-3,-5,-2,-2,-1,1756999501109587907
0,3.480502367,20250904112501110,None,8,230.1169891357422,-1,-1,1,-1,1,1,-2,-1,1756999501109723329
0,3.4879179000000002,20250904112501117,None,8,231.5447998046875,3,-1,1,-1,-1,0,1,0,1756999501117132902
0,3.488063574,20250904112501117,None,8,231.5447998046875,-3,1,-2,-1,-2,-1,1,1,1756999501117257118
0,3.5029323100000003,20250904112501132,None,8,231.06886291503906,-2,0,-2,2,-1,0,0,0,1756999501132134675
0,3.503063202,20250904112501132,None,8,231.06886291503906,0,-1,-2,-1,-1,0,-3,1,1756999501132277727
0,3.510519982,20250904112501140,None,8,230.1169891357422,-1,-4,-2,-1,-1,-2,-2,-4,1756999501139696836
0,3.51068163,20250904112501140,None,8,230.1169891357422,-1,0,-1,-1,-1,2,-1,1,1756999501139893770
0,3.517838002,20250904112501147,None,8,230.1169891357422,-1,-2,1,-2,-3,3,-1,-5,1756999501147084951
0,3.517950774,20250904112501147,None,8,230.1169891357422,-7,0,-6,-5,1,-1,2,-4,1756999501147199153
0,3.5329761509999997,20250904112501162,None,8,231.06886291503906,-2,1,0,0,1,1,2,-3,1756999501162164449
0,3.533128262,20250904112501162,None,8,231.06886291503906,0,1,2,0,-3,0,-5,0,1756999501162284612
0,3.540309191,20250904112501169,None,8,230.35494995117188,-1,-6,-5,-2,-3,-1,-5,-2,1756999501169576168
0,3.540409565,20250904112501169,None,8,230.35494995117188,-1,-1,0,-1,1,-1,0,-1,1756999501169697523
0,3.5478115089999998,20250904112501177,None,8,231.3068389892578,1,1,-1,1,-11,-12,-1,1,1756999501177041053
0,3.547927618,20250904112501177,None,8,231.3068389892578,0,0,-4,-1,7,17,3,-1,1756999501177154541
0,3.571220637,20250904112501200,None,8,231.5447998046875,-3,0,1,0,0,0,-1,-4,1756999501200424671
0,3.571391583,20250904112501200,None,8,231.5447998046875,1,-1,-4,2,-6,-8,-3,2,1756999501200601816
0,3.571976185,20250904112501201,None,8,231.5447998046875,1,1,-2,0,2,-2,-1,-2,1756999501201163768
0,3.572089672,20250904112501201,None,8,231.5447998046875,2,-2,-2,-6,-1,-2,1,-2,1756999501201261281
0,3.577925682,20250904112501207,None,8,229.87901306152344,-1,-4,-1,0,0,0,-2,-4,1756999501207115888
0,3.578066826,20250904112501207,None,8,229.87901306152344,-4,-3,1,-1,-2,-1,-1,-1,1756999501207270860
0,3.592964173,20250904112501222,None,8,231.3068389892578,-1,-4,-1,-1,-1,-2,1,-3,1756999501222195863
0,3.593528509,20250904112501223,None,8,231.3068389892578,0,-4,-1,0,-2,0,1,-1,1756999501222402095
0,3.6003873349999997,20250904112501229,None,8,230.35494995117188,-3,-1,2,2,-2,-1,-1,-1,1756999501229482412
0,3.6004951,20250904112501229,None,8,230.35494995117188,0,-2,0,-4,-2,1,-1,-1,1756999501229589223
0,3.60795188,20250904112501237,None,8,230.83090209960938,-3,-3,1,-1,-2,-3,-1,1,1756999501237024068
0,3.60808301,20250904112501237,None,8,230.83090209960938,0,0,1,1,0,-1,4,0,1756999501237146615
0,3.623385907,20250904112501252,None,8,230.35494995117188,2,-1,4,-3,-3,1,-5,0,1756999501252199649
0,3.6236193180000003,20250904112501253,None,8,230.35494995117188,-3,-1,-2,3,2,2,-4,-1,1756999501252370119
0,3.63082242,20250904112501260,None,8,230.35494995117188,0,-1,1,-1,-3,2,3,1,1756999501259677886
0,3.631023646,20250904112501260,None,8,230.35494995117188,1,2,-2,-3,2,-3,-4,-2,1756999501259857177
0,3.638100624,20250904112501267,None,8,231.5447998046875,3,5,-1,3,2,-4,0,0,1756999501267107725
0,3.63829279,20250904112501267,None,8,231.5447998046875,-4,-3,0,-4,-7,-5,-1,1,1756999501267221212
0,3.653099776,20250904112501282,None,8,231.3068389892578,-2,-4,1,1,-3,-1,-1,-2,1756999501282120466
0,3.653307677,20250904112501282,None,8,231.3068389892578,2,3,-4,-3,-2,2,0,0,1756999501282297849
0,3.660616398,20250904112501290,None,8,229.64105224609375,-2,-1,-4,1,-1,-1,-3,-2,1756999501289603471
0,3.660857439,20250904112501290,None,8,229.64105224609375,0,-2,-2,-4,-3,2,0,1,1756999501289735794
0,3.675690174,20250904112501305,None,8,231.3068389892578,-1,-7,-3,-2,-1,-3,-1,0,1756999501304635763
0,3.676071644,20250904112501305,None,8,231.3068389892578,-2,-3,0,1,-4,1,-1,-4,1756999501304775953
0,3.683167696,20250904112501312,None,8,230.35494995117188,0,-3,1,-4,-2,-2,-3,-3,1756999501312138557
0,3.683483124,20250904112501312,None,8,230.35494995117188,-1,-4,0,-4,-9,-3,-2,1,1756999501312256336
0,3.691047669,20250904112501320,None,8,231.06886291503906,1,-1,2,5,7,0,-1,1,1756999501319984674
0,3.691261053,20250904112501320,None,8,231.06886291503906,-1,1,-4,3,-1,2,-1,1,1756999501320214986
0,3.69831419,20250904112501327,None,8,230.83090209960938,0,-3,-3,-4,-4,1,1,1,1756999501327153444
0,3.698527575,20250904112501328,None,8,230.83090209960938,-2,-1,-2,-2,1,-1,-6,-3,1756999501327262878
0,3.713213683,20250904112501342,None,8,230.59292602539062,2,-1,-4,-4,-4,0,0,-3,1756999501342067003
0,3.713436127,20250904112501342,None,8,230.59292602539062,-1,1,-1,-2,2,3,-1,-1,1756999501342176437
0,3.72059083,20250904112501350,None,8,231.3068389892578,0,0,0,0,0,-1,-3,-1,1756999501349771022
0,3.720785618,20250904112501350,None,8,231.3068389892578,2,0,-1,0,0,-3,1,3,1756999501350017309
0,3.728112221,20250904112501357,None,8,229.64105224609375,-3,-5,2,0,-1,-4,-3,1,1756999501357338190
0,3.728216887,20250904112501357,None,8,229.64105224609375,-1,-1,-3,-1,-6,-9,2,-2,1756999501357552289
0,3.743113518,20250904112501372,None,8,229.87901306152344,-2,2,-2,2,19,20,1,0,1756999501372301340
0,3.743260861,20250904112501372,None,8,229.87901306152344,-1,1,0,3,0,-3,4,1,1756999501372476100
0,3.750701905,20250904112501380,None,8,229.87901306152344,1,1,4,1,-4,-4,2,1,1756999501379918336
0,3.750798464,20250904112501380,None,8,229.87901306152344,1,0,-5,-5,-4,-2,-3,1,1756999501380126476
0,3.758140326,20250904112501387,None,8,231.5447998046875,-1,-2,-1,2,0,-3,-2,0,1756999501387329816
0,3.758295536,20250904112501387,None,8,231.5447998046875,0,-3,3,-3,0,1,-2,0,1756999501387501716
0,3.773251534,20250904112501402,None,8,230.59292602539062,-1,4,2,1,0,-1,0,-2,1756999501402478694
0,3.773393154,20250904112501402,None,8,230.59292602539062,3,0,-1,2,1,0,-1,3,1756999501402689218
0,3.788727284,20250904112501418,None,8,230.1169891357422,-4,1,0,0,-2,-4,-1,0,1756999501417963743
0,3.788831234,20250904112501418,None,8,230.1169891357422,0,-4,-5,-1,-1,-2,-1,-1,1756999501418150901
0,3.789485216,20250904112501418,None,8,230.1169891357422,-2,1,2,1,-2,-1,0,2,1756999501418743371
0,3.789562941,20250904112501419,None,8,230.1169891357422,-2,-1,1,1,-1,0,2,0,1756999501418931722
0,3.803084374,20250904112501432,None,8,231.3068389892578,1,-1,-1,0,2,-2,-3,0,1756999501432318687
0,3.803214074,20250904112501432,None,8,231.3068389892578,-3,1,-1,-3,1,-1,0,0,1756999501432502269
0,3.81051302,20250904112501440,None,8,229.87901306152344,0,-3,-1,-3,-5,-3,-4,-3,1756999501439770460
0,3.810628414,20250904112501440,None,8,229.87901306152344,-1,-4,-3,0,-1,1,-3,-1,1756999501439947843
0,3.818044186,20250904112501447,None,8,231.3068389892578,0,-1,-2,0,1,-2,1,5,1756999501447305202
0,3.818125487,20250904112501447,None,8,231.3068389892578,-1,1,4,0,-2,-1,2,-2,1756999501447494506
0,3.832923413,20250904112501462,None,8,229.87901306152344,1,0,0,0,-1,-2,-1,-3,1756999501462132215
0,3.833034754,20250904112501462,None,8,229.87901306152344,-2,-3,-2,-1,-1,4,1,-1,1756999501462323427
0,3.84033227,20250904112501469,None,8,231.5447998046875,-5,-2,-1,2,0,-3,-2,0,1756999501469606876
0,3.840466023,20250904112501469,None,8,231.5447998046875,-1,1,-2,2,0,2,-7,1,1756999501469728946
0,3.848044873,20250904112501477,None,8,230.1169891357422,0,2,0,-5,-1,4,5,1,1756999501477303028
0,3.848152638,20250904112501477,None,8,230.1169891357422,0,2,2,-1,-1,0,-1,-3,1756999501477476835
0,3.8630595210000003,20250904112501492,None,8,230.59292602539062,-1,-2,-2,-3,-3,-2,-2,-2,1756999501492318868
0,3.863151551,20250904112501492,None,8,230.59292602539062,-1,-1,-3,-1,0,-2,-4,0,1756999501492500066
0,3.870862723,20250904112501500,None,8,230.59292602539062,3,-2,-3,-3,-4,-3,-1,-1,1756999501499828815
0,3.871044159,20250904112501500,None,8,230.59292602539062,-1,-3,-1,-2,-2,0,-3,-1,1756999501500024557
0,3.878098011,20250904112501507,None,8,230.59292602539062,0,-4,1,2,1,1,2,1,1756999501507318735
0,3.878269673,20250904112501507,None,8,230.59292602539062,-1,0,-3,0,-5,0,0,0,1756999501507511615
0,3.8929538729999997,20250904112501522,None,8,229.87901306152344,-4,1,2,-1,0,-2,-3,-3,1756999501522197723
0,3.893029929,20250904112501522,None,8,229.87901306152344,-1,1,0,-2,0,0,-4,-1,1756999501522388458
0,3.900502444,20250904112501530,None,8,231.78277587890625,-2,-2,-1,0,-2,-3,0,-1,1756999501529762029
0,3.90059805,20250904112501530,None,8,231.78277587890625,0,-3,0,0,0,3,-1,0,1756999501529940128
0,3.908023358,20250904112501537,None,8,229.64105224609375,-1,-1,1,2,-2,2,-2,0,1756999501537329435
0,3.908122778,20250904112501537,None,8,229.64105224609375,-2,-2,-6,-3,1,-2,1,0,1756999501537503480
0,3.923142434,20250904112501552,None,8,231.5447998046875,3,2,3,-8,-2,-3,-3,1,1756999501552386522
0,3.923247815,20250904112501552,None,8,231.5447998046875,-1,2,-3,2,-8,-15,-3,0,1756999501552560329
0,3.930558682,20250904112501560,None,8,230.1169891357422,-2,0,0,2,8,13,-1,1,1756999501559818506
0,3.930654765,20250904112501560,None,8,230.1169891357422,-4,1,0,1,2,-2,-3,-6,1756999501560020208
0,3.938059807,20250904112501567,None,8,230.83090209960938,0,4,1,1,-2,-3,-1,1,1756999501567342758
0,3.9381511209999998,20250904112501567,None,8,230.83090209960938,-4,-4,-4,-3,0,-3,-6,-1,1756999501567523956
0,3.952813626,20250904112501582,None,8,230.59292602539062,-2,-1,-5,-3,-3,0,2,-1,1756999501582101106
0,3.9528794290000002,20250904112501582,None,8,230.59292602539062,-1,-2,1,0,-2,-1,-3,-4,1756999501582262992
0,3.9603049759999998,20250904112501589,None,8,230.59292602539062,-2,1,0,-1,-1,-5,1,1,1756999501589586734
0,3.960385323,20250904112501589,None,8,230.59292602539062,2,-4,1,2,2,2,-1,0,1756999501589720726
0,3.968078614,20250904112501597,None,8,230.83090209960938,-1,-1,-6,-9,-5,-4,1,-2,1756999501597107410
0,3.968256235,20250904112501597,None,8,230.83090209960938,-4,0,-3,-1,-1,0,-2,-1,1756999501597215890
0,3.983102084,20250904112501612,None,8,231.78277587890625,1,-4,-3,-1,-10,1,1,0,1756999501612104177
0,3.983325482,20250904112501612,None,8,231.78277587890625,1,2,0,4,13,1,-2,-3,1756999501612244844
0,3.990494728,20250904112501620,None,8,229.87901306152344,-1,0,1,-1,3,2,-1,-2,1756999501619555234
0,3.99065876,20250904112501620,None,8,229.87901306152344,-4,-1,2,-2,-3,-3,-5,-3,1756999501619662046
0,3.998042345,20250904112501627,None,8,229.87901306152344,1,-2,0,-1,-7,0,0,1,1756999501627063035
0,3.998247147,20250904112501627,None,8,229.87901306152344,-1,0,-2,-1,1,2,1,2,1756999501627165079
0,4.013077736,20250904112501642,None,8,229.64105224609375,-4,1,1,-4,0,-3,-3,-1,1756999501642075538
0,4.013275624,20250904112501642,None,8,229.64105224609375,-2,-4,-2,1,1,3,2,0,1756999501642194271
0,4.020581007,20250904112501650,None,8,231.5447998046875,-2,-2,-2,-3,-2,-1,2,-1,1756999501649605751
0,4.020806551,20250904112501650,None,8,231.5447998046875,-1,2,-1,1,2,-3,-4,-2,1756999501649733781
0,4.028134585,20250904112501657,None,8,230.83090209960938,1,5,-1,-2,-3,-2,-3,-3,1756999501657176733
0,4.028312445,20250904112501657,None,8,230.83090209960938,-3,-4,1,3,-3,-4,1,-1,1756999501657318353
0,4.043112278,20250904112501672,None,8,230.83090209960938,1,1,-3,1,2,5,1,0,1756999501672108173
0,4.043340683,20250904112501672,None,8,230.83090209960938,-3,-1,-3,-3,-3,-2,-2,-2,1756999501672247409
0,4.050570011,20250904112501680,None,8,230.83090209960938,-4,-3,-1,3,3,1,2,0,1756999501679599046
0,4.050780774,20250904112501680,None,8,230.83090209960938,-3,2,-4,-3,1,-2,-2,-1,1756999501679723262
0,4.058022976,20250904112501687,None,8,229.87901306152344,1,-3,3,1,0,3,0,4,1756999501687033891
0,4.058198929,20250904112501687,None,8,229.87901306152344,-3,2,-3,-3,0,-3,0,-5,1756999501687139749
0,4.073594094,20250904112501703,None,8,229.64105224609375,-2,-2,-1,0,1,1,-4,-4,1756999501702570915
0,4.073817015,20250904112501703,None,8,229.64105224609375,-1,-1,0,-1,0,-2,-1,-1,1756999501702696084
0,4.080396891,20250904112501709,None,8,229.64105224609375,-1,-3,1,-2,0,-2,-1,-2,1756999501709620952
0,4.080523491,20250904112501710,None,8,229.64105224609375,-3,0,-1,-2,-3,1,1,1,1756999501709770679
0,4.08779645,20250904112501717,None,8,231.3068389892578,0,-1,-1,0,-1,-4,-1,-2,1756999501717105388
0,4.08788991,20250904112501717,None,8,231.3068389892578,0,2,-2,1,0,0,0,0,1756999501717222213
0,4.102930308,20250904112501732,None,8,230.83090209960938,0,-4,3,1,4,1,0,-2,1756999501732125759
0,4.103081227,20250904112501732,None,8,230.83090209960938,4,2,0,0,-6,-3,0,0,1756999501732264041
0,4.110653639,20250904112501740,None,8,230.1169891357422,-1,-1,-4,2,-5,-14,-1,-2,1756999501739854574
0,4.11081934,20250904112501740,None,8,230.1169891357422,-3,0,-2,-2,4,14,0,-2,1756999501740062952
0,4.125598908,20250904112501755,None,8,230.83090209960938,0,-2,0,1,3,-1,0,2,1756999501754784584
0,4.125722409,20250904112501755,None,8,230.83090209960938,-2,0,1,3,1,-4,-1,1,1756999501754981040
0,4.133063317,20250904112501762,None,8,230.59292602539062,-2,0,0,4,-2,-4,1,1,1756999501762290716
0,4.133213997,20250904112501762,None,8,230.59292602539062,-1,-3,0,-4,0,1,0,-1,1756999501762475967
0,4.140536785,20250904112501770,None,8,230.35494995117188,1,2,-3,0,-2,-2,-2,-4,1756999501769788742
0,4.140655756,20250904112501770,None,8,230.35494995117188,2,0,0,0,0,-1,-2,-3,1756999501769983291
0,4.155378342,20250904112501784,None,8,231.3068389892578,0,-1,-2,-2,-2,-2,1,1,1756999501784655094
0,4.155448676,20250904112501784,None,8,231.3068389892578,-4,-1,-2,-2,-3,-2,-4,-1,1756999501784797906
0,4.162844181,20250904112501792,None,8,229.64105224609375,2,3,-1,-4,0,1,4,-2,1756999501792129278
0,4.162913561,20250904112501792,None,8,229.64105224609375,0,5,-4,1,-1,-2,-1,-1,1756999501792300462
0,4.1703925139999996,20250904112501799,None,8,231.78277587890625,-2,-1,2,2,0,0,1,-3,1756999501799638032
0,4.170498848,20250904112501800,None,8,231.78277587890625,0,-1,2,1,-1,-1,0,-2,1756999501799807071
0,4.18528843,20250904112501814,None,8,231.5447998046875,2,-1,2,0,-3,2,-1,-1,1756999501814565181
0,4.185402155,20250904112501814,None,8,231.5447998046875,1,0,-3,0,-3,-1,1,-1,1756999501814690113
0,4.192826748,20250904112501822,None,8,231.5447998046875,0,1,1,0,2,-3,0,1,1756999501822062253
0,4.1931695940000004,20250904112501822,None,8,231.5447998046875,-1,-3,0,-1,0,-4,-3,-1,1756999501822434902
0,4.200362921,20250904112501829,None,8,230.1169891357422,0,-1,-1,3,2,0,-2,0,1756999501829632520
0,4.200476408,20250904112501829,None,8,230.1169891357422,-5,-4,-1,-4,-1,-2,-2,-2,1756999501829757213
0,4.215626479,20250904112501845,None,8,230.59292602539062,1,-2,-1,-7,-5,-4,-1,2,1756999501844842195
0,4.215765953,20250904112501845,None,8,230.59292602539062,-1,-2,-1,-1,1,-1,-3,0,1756999501845051050
0,4.22309947,20250904112501852,None,8,230.59292602539062,-1,-2,0,0,-4,0,0,2,1756999501852353334
0,4.22319603,20250904112501852,None,8,230.59292602539062,1,-2,-4,-1,-2,1,1,-1,1756999501852550029
0,4.238078118,20250904112501867,None,8,231.3068389892578,-2,-1,-4,-2,0,-2,0,0,1756999501867319583
0,4.238220454,20250904112501867,None,8,231.3068389892578,-1,-4,-2,-3,-15,-5,0,0,1756999501867516756
0,4.245431185,20250904112501874,None,8,229.64105224609375,-3,-1,0,6,18,5,-1,0,1756999501874686956
0,4.245531559,20250904112501875,None,8,229.64105224609375,-3,0,2,1,6,0,-1,-2,1756999501874839782
0,4.2529914380000005,20250904112501882,None,8,231.5447998046875,-1,-1,-1,-4,-2,0,3,-3,1756999501882255792
0,4.253068924,20250904112501882,None,8,231.5447998046875,0,-2,-3,1,-2,0,-3,2,1756999501882418394
0,4.260497809,20250904112501890,None,8,229.87901306152344,-3,1,-1,-2,-2,-2,-2,-2,1756999501889752864
0,4.260581732,20250904112501890,None,8,229.87901306152344,1,0,-2,-3,-2,-1,0,-2,1756999501889933347
0,4.275435686,20250904112501904,None,8,231.3068389892578,-2,-2,1,0,-1,-1,-4,0,1756999501904673576
0,4.275545359,20250904112501905,None,8,231.3068389892578,0,-3,-1,0,2,-2,2,1,1756999501904853582
0,4.291203261,20250904112501920,None,8,231.06886291503906,0,-1,3,0,0,2,2,1,1756999501920453548
0,4.291317225,20250904112501920,None,8,231.06886291503906,-1,1,-4,0,-1,1,1,-1,1756999501920637845
0,4.291629553,20250904112501921,None,8,231.06886291503906,-2,-1,-3,-2,-4,1,-2,1,1756999501920977592
0,4.291758776,20250904112501921,None,8,231.06886291503906,0,-1,-1,-3,-4,-4,-1,-2,1756999501921087980
0,4.305556059,20250904112501935,None,8,230.59292602539062,-1,1,0,2,1,-1,1,-3,1756999501934793233
0,4.305665017,20250904112501935,None,8,230.59292602539062,-4,-5,-4,-8,-1,-2,-2,-4,1756999501934973001
0,4.312780857,20250904112501942,None,8,230.59292602539062,-2,-2,0,2,-7,-12,3,-4,1756999501942114591
0,4.31284523,20250904112501942,None,8,230.59292602539062,0,-3,-2,-1,5,14,-4,-3,1756999501942252635
0,4.320546151,20250904112501950,None,8,231.3068389892578,-2,1,-2,3,2,-3,-1,2,1756999501949801445
0,4.320680619,20250904112501950,None,8,231.3068389892578,1,0,-2,-3,-1,-5,-3,1,1756999501949991226
0,4.335508108,20250904112501965,None,8,231.5447998046875,0,0,0,-1,-2,-4,1,-1,1756999501964729070
0,4.335640669,20250904112501965,None,8,231.5447998046875,0,-2,0,-1,1,0,-1,2,1756999501964925289
0,4.342963696,20250904112501972,None,8,229.64105224609375,-1,-2,-1,1,-3,-2,-2,1,1756999501972214937
0,4.343060494,20250904112501972,None,8,229.64105224609375,-3,1,0,-3,-4,-3,-4,-6,1756999501972414255
0,4.350323916,20250904112501979,None,8,231.3068389892578,1,1,0,3,5,3,-1,0,1756999501979640245
0,4.350461483,20250904112501979,None,8,231.3068389892578,0,1,-3,-3,-5,2,1,-4,1756999501979801893
0,4.365348101,20250904112501994,None,8,230.1169891357422,1,-4,-1,-5,2,0,1,2,1756999501994609117
0,4.365458727,20250904112501994,None,8,230.1169891357422,-1,0,0,-2,-6,-4,2,0,1756999501994741916
0,4.372868777,20250904112502002,None,8,231.06886291503906,1,0,-1,-1,1,-3,-1,1,1756999502002093553
0,4.372988463,20250904112502002,None,8,231.06886291503906,-2,-2,-4,0,-4,-2,-4,-1,1756999502002259016
0,4.380414486,20250904112502009,None,8,230.83090209960938,-3,0,-3,-1,0,1,-2,-4,1756999502009615182
0,4.380556107,20250904112502010,None,8,230.83090209960938,-1,-1,-2,-3,-1,-1,-1,-3,1756999502009737014
0,4.395324231,20250904112502024,None,8,230.35494995117188,-2,1,-1,2,0,-2,1,1,1756999502024519443
0,4.395440817,20250904112502024,None,8,230.35494995117188,2,2,2,-1,4,3,1,0,1756999502024641513
0,4.402690173,20250904112502032,None,8,231.06886291503906,-2,-2,0,0,-1,-3,-3,1,1756999502031977415
0,4.402781725,20250904112502032,None,8,231.06886291503906,-1,1,1,1,2,2,0,1,1756999502032077550
0,4.410190821,20250904112502039,None,8,230.1169891357422,-1,0,-1,1,0,1,2,-3,1756999502039513111
0,4.41027546,20250904112502039,None,8,230.1169891357422,1,1,-1,0,-3,0,0,-1,1756999502039626121
0,4.425385237,20250904112502054,None,8,229.87901306152344,-1,7,-4,0,3,1,-2,1,1756999502054589986
0,4.425527335,20250904112502055,None,8,229.87901306152344,0,-3,-3,0,-1,-4,-1,-2,1756999502054744482
0,4.432821989,20250904112502062,None,8,231.78277587890625,0,-2,-2,-3,-2,0,0,1,1756999502062070846
0,4.432934046,20250904112502062,None,8,231.78277587890625,-3,-4,-3,-2,-2,-1,-2,1,1756999502062184333
0,4.440297604,20250904112502069,None,8,231.78277587890625,-1,1,-5,1,0,1,-2,-3,1756999502069582700
0,4.440406084,20250904112502069,None,8,231.78277587890625,-1,3,-2,-3,0,2,0,0,1756999502069720029
0,4.455333948,20250904112502084,None,8,230.83090209960938,-3,-2,1,-5,0,0,3,-1,1756999502084598779
0,4.455469132,20250904112502084,None,8,230.83090209960938,0,1,3,-3,-2,-1,1,-2,1756999502084710836
0,4.462997675,20250904112502092,None,8,230.59292602539062,-1,1,-1,6,2,-3,-1,0,1756999502092272043
0,4.463083744,20250904112502092,None,8,230.59292602539062,-3,-3,3,4,0,-3,1,-1,1756999502092463016
0,4.470561743,20250904112502100,None,8,230.59292602539062,-1,-2,-1,2,-2,-1,-1,-1,1756999502099745750
0,4.470668793,20250904112502100,None,8,230.59292602539062,-1,3,-3,-2,1,0,1,-1,1756999502099945068
0,4.485300064,20250904112502114,None,8,230.59292602539062,1,-1,-2,0,0,2,-3,-1,1756999502114565134
0,4.485440493,20250904112502114,None,8,230.59292602539062,-4,-2,0,0,1,1,-1,-2,1756999502114711046
0,4.492886067,20250904112502122,None,8,229.64105224609375,4,2,0,-2,2,4,-5,-1,1756999502122078657
0,4.493018389,20250904112502122,None,8,229.64105224609375,-1,-4,-2,-3,-11,-21,-1,-1,1756999502122195005
0,4.500313044,20250904112502129,None,8,231.06886291503906,0,-2,2,0,10,18,4,1,1756999502129590988
0,4.500408411,20250904112502129,None,8,231.06886291503906,-4,-3,0,3,-1,3,1,-2,1756999502129745244
0,4.515389204,20250904112502144,None,8,229.64105224609375,-2,3,3,-1,-1,-6,-2,0,1756999502144607782
0,4.515498638,20250904112502145,None,8,229.64105224609375,-4,0,-4,-2,0,-3,-3,0,1756999502144734859
0,4.522686005,20250904112502152,None,8,231.5447998046875,0,-1,-1,-5,-1,-2,1,-1,1756999502152032852
0,4.522765875,20250904112502152,None,8,231.5447998046875,-3,1,-5,-5,0,0,1,-1,1756999502152144670
0,4.5303154,20250904112502159,None,8,229.64105224609375,0,-4,1,0,-1,-4,-8,-2,1756999502159594297
0,4.530421734,20250904112502159,None,8,229.64105224609375,-2,-2,0,-2,0,-1,5,1,1756999502159712076
0,4.545280934,20250904112502174,None,8,230.35494995117188,-2,-1,-1,-4,-6,-1,0,1,1756999502174542665
0,4.545373679,20250904112502174,None,8,230.35494995117188,-3,4,-1,-1,-1,0,-1,0,1756999502174663066
0,4.553155423,20250904112502182,None,8,230.35494995117188,0,-4,-1,1,2,2,-3,0,1756999502182083606
0,4.553390026,20250904112502182,None,8,230.35494995117188,-2,-1,1,-1,0,1,2,2,1756999502182219982
0,4.560222626,20250904112502189,None,8,230.83090209960938,-3,-2,-3,-4,-5,1,-4,-1,1756999502189506292
0,4.560357333,20250904112502189,None,8,230.83090209960938,-2,1,-1,0,1,-2,-1,-4,1756999502189597368
0,4.575353861,20250904112502204,None,8,229.87901306152344,-1,3,0,-1,-2,-4,-2,-4,1756999502204599857
0,4.575502158,20250904112502205,None,8,229.87901306152344,-1,-2,-1,1,7,1,1,-2,1756999502204730272
0,4.582837344,20250904112502212,None,8,231.5447998046875,-4,-3,-1,-2,-2,-2,0,-5,1756999502212112665
0,4.583003044,20250904112502212,None,8,231.5447998046875,2,-1,1,-3,-4,0,1,-1,1756999502212241649
0,4.590497256,20250904112502220,None,8,231.5447998046875,1,-1,-1,1,2,-2,-2,-3,1756999502219713687
0,4.590624094,20250904112502220,None,8,231.5447998046875,0,1,0,-2,1,-4,-2,1,1756999502219900846
0,4.605371476,20250904112502234,None,8,231.5447998046875,-1,-4,0,-1,-3,-1,-1,0,1756999502234596014
0,4.6055305010000005,20250904112502235,None,8,231.5447998046875,1,1,-2,2,-1,-2,0,0,1756999502234734535
0,4.612835646,20250904112502242,None,8,230.1169891357422,-1,-2,1,4,0,-1,-2,1,1756999502242083311
0,4.612981081,20250904112502242,None,8,230.1169891357422,-4,-3,-3,-4,-17,-4,-1,-1,1756999502242197036
0,4.620325327,20250904112502249,None,8,231.06886291503906,-4,0,-2,1,10,-2,-5,-5,1756999502249592781
0,4.620475054,20250904112502249,None,8,231.06886291503906,0,0,0,0,3,3,-3,0,1756999502249710798
0,4.63536048,20250904112502264,None,8,230.35494995117188,-3,-3,0,3,-2,0,0,1,1756999502264619588
0,4.6354889870000004,20250904112502264,None,8,230.35494995117188,-3,-4,-2,-1,-5,-6,-4,1,1756999502264769554
0,4.642788887,20250904112502272,None,8,230.83090209960938,1,-2,-1,-3,-1,-1,-1,-2,1756999502272069931
0,4.6428992749999995,20250904112502272,None,8,230.83090209960938,0,2,-1,1,-1,1,-2,-1,1756999502272193908
0,4.650461197,20250904112502279,None,8,230.59292602539062,0,-4,0,5,3,0,3,-2,1756999502279567241
0,4.6506652840000005,20250904112502280,None,8,230.59292602539062,2,-2,-2,-1,-2,-2,-2,-3,1756999502279674768
0,4.665436983,20250904112502294,None,8,231.3068389892578,-1,1,4,-2,0,-2,7,1,1756999502294560670
0,4.665626288,20250904112502295,None,8,231.3068389892578,-2,-4,-3,2,1,-3,-3,-3,1756999502294668912
0,4.67276311,20250904112502302,None,8,231.3068389892578,2,2,2,-3,0,-1,-1,0,1756999502302058696
0,4.672864676,20250904112502302,None,8,231.3068389892578,0,-3,-5,-2,-1,1,1,-1,1756999502302170038
0,4.680498124,20250904112502310,None,8,229.64105224609375,-3,1,-2,-2,-2,-1,1,-2,1756999502309593677
0,4.680805445,20250904112502310,None,8,229.64105224609375,-4,-1,-2,-2,-3,-3,-1,0,1756999502309705018
0,4.695305825,20250904112502324,None,8,229.87901306152344,-1,-3,0,-4,1,2,1,-1,1756999502324552774
0,4.695442438,20250904112502324,None,8,229.87901306152344,-4,-2,1,1,1,0,0,0,1756999502324655532
0,4.702670813,20250904112502332,None,8,231.5447998046875,-1,-1,0,-2,-5,0,2,-1,1756999502331993341
0,4.702766419,20250904112502332,None,8,231.5447998046875,-2,0,0,-2,1,-2,-3,1,1756999502332087993
0,4.710294009,20250904112502339,None,8,231.5447998046875,-1,-1,-2,-1,-3,0,1,1,1756999502339569330
0,4.71040845,20250904112502339,None,8,231.5447998046875,-1,0,-3,-4,-6,2,3,1,1756999502339687824
0,4.725491047,20250904112502355,None,8,231.06886291503906,1,-2,0,1,4,-3,-2,-1,1756999502354690551
0,4.725634337,20250904112502355,None,8,231.06886291503906,1,-1,-1,0,1,-1,-1,-2,1756999502354855060
0,4.732857943,20250904112502362,None,8,230.83090209960938,-2,-2,-3,2,0,2,-1,0,1756999502362062931
0,4.732985735,20250904112502362,None,8,230.83090209960938,-2,1,-1,-2,5,12,0,-2,1756999502362179994
0,4.740275145,20250904112502369,None,8,230.35494995117188,-1,2,-1,1,-2,-5,1,-1,1756999502369598388
0,4.740374804,20250904112502369,None,8,230.35494995117188,0,-2,-2,-2,-7,-5,-2,-2,1756999502369717359
0,4.755480767,20250904112502384,None,8,231.3068389892578,-2,0,-3,0,-2,0,0,0,1756999502384709596
0,4.755591393,20250904112502385,None,8,231.3068389892578,3,1,0,-2,4,-2,-3,-2,1756999502384884595
0,4.762841225,20250904112502392,None,8,230.1169891357422,-5,-2,-6,-3,-2,0,0,-2,1756999502392107248
0,4.762929678,20250904112502392,None,8,230.1169891357422,1,0,1,1,-1,-2,2,1,1756999502392264604
0,4.770381213,20250904112502399,None,8,231.5447998046875,-4,1,-1,2,-2,-1,-4,-2,1756999502399641513
0,4.770501137,20250904112502400,None,8,231.5447998046875,0,1,2,-2,-1,3,-6,-1,1756999502399799823
0,4.793551207,20250904112502423,None,8,230.35494995117188,1,-2,-3,2,0,-2,1,0,1756999502422740221
0,4.793692828,20250904112502423,None,8,230.35494995117188,-1,-1,1,-1,-2,-2,-4,-5,1756999502422916650
0,4.794243574,20250904112502423,None,8,230.35494995117188,1,-3,-5,0,-3,0,0,-1,1756999502423581123
0,4.794336558,20250904112502423,None,8,230.35494995117188,-2,-2,0,-1,2,-1,-3,-2,1756999502423704147
0,4.8003172880000005,20250904112502429,None,8,230.35494995117188,2,0,-1,3,1,0,-3,-3,1756999502429598808
0,4.800451756,20250904112502429,None,8,230.35494995117188,-1,2,0,0,-2,-2,-2,-2,1756999502429725885
0,4.815361739,20250904112502444,None,8,230.83090209960938,-1,-4,2,-2,-3,1,1,-1,1756999502444604873
0,4.815496683,20250904112502445,None,8,230.83090209960938,-3,-3,-5,-1,3,0,-1,-1,1756999502444747924
0,4.822844506,20250904112502452,None,8,230.35494995117188,-2,2,-4,0,-3,-1,-1,-2,1756999502452091217
0,4.82297659,20250904112502452,None,8,230.35494995117188,1,-4,-2,1,-3,-3,-1,1,1756999502452250719
0,4.830542088,20250904112502460,None,8,231.3068389892578,-2,-2,0,3,0,2,-1,1,1756999502459771871
0,4.830720663,20250904112502460,None,8,231.3068389892578,-1,-6,-5,-2,-3,0,-2,-3,1756999502459938049
0,4.84539485,20250904112502474,None,8,229.64105224609375,-3,-3,1,-2,-3,0,-1,-2,1756999502474530696
0,4.845534087,20250904112502475,None,8,229.64105224609375,-1,-2,-2,-3,-1,-1,1,1,1756999502474657535
0,4.852702856,20250904112502482,None,8,231.5447998046875,2,1,2,0,-3,1,1,-3,1756999502481958150
0,4.852808476,20250904112502482,None,8,231.5447998046875,2,1,2,-1,-2,-3,1,-1,1756999502482063055
0,4.860438109,20250904112502489,None,8,229.64105224609375,-1,1,-4,-3,2,0,1,-1,1756999502489643096
0,4.860574246,20250904112502490,None,8,229.64105224609375,-1,-1,0,2,2,0,0,-4,1756999502489799976
0,4.875525713,20250904112502505,None,8,231.78277587890625,-2,0,-3,-3,-1,-4,2,-1,1756999502504699707
0,4.87567997,20250904112502505,None,8,231.78277587890625,-2,0,-4,0,-2,-1,-1,-1,1756999502504937648
0,4.882948161,20250904112502512,None,8,230.1169891357422,-1,2,2,-3,-4,-1,0,-1,1756999502512081146
0,4.88308239,20250904112502512,None,8,230.1169891357422,-2,-4,1,3,2,0,-2,-2,1756999502512206792
0,4.890463114,20250904112502519,None,8,231.06886291503906,1,3,0,-5,-3,0,-1,-1,1756999502519614696
0,4.89060402,20250904112502520,None,8,231.06886291503906,-1,-4,-2,1,11,2,-1,0,1756999502519750118
0,4.905407429,20250904112502534,None,8,230.59292602539062,-3,0,1,-1,1,-1,-1,1,1756999502534561395
0,4.905528546,20250904112502535,None,8,230.59292602539062,1,1,-2,0,-11,-19,-6,1,1756999502534699440
0,4.912866831,20250904112502542,None,8,230.59292602539062,0,-1,-1,-2,2,13,7,1,1756999502542055845
0,4.913080931,20250904112502542,None,8,230.59292602539062,1,-1,-1,-3,-2,-1,1,0,1756999502542173624
0,4.920611382,20250904112502550,None,8,231.06886291503906,-4,-1,-1,-3,-4,-7,-4,-4,1756999502549734354
0,4.920799017,20250904112502550,None,8,231.06886291503906,1,2,1,2,-6,-3,-2,-2,1756999502549893856
0,4.935388327,20250904112502564,None,8,231.3068389892578,-2,-7,1,5,1,-2,-3,-2,1756999502564611434
0,4.935507536,20250904112502565,None,8,231.3068389892578,-1,2,-4,0,-5,-2,-3,-1,1756999502564764976
0,4.942935467,20250904112502572,None,8,230.1169891357422,-2,-4,1,4,4,3,1,-2,1756999502572117805
0,4.943085194,20250904112502572,None,8,230.1169891357422,-1,-5,0,-5,-4,-2,2,1,1756999502572264909
0,4.957849503,20250904112502587,None,8,231.5447998046875,2,1,-1,-2,0,0,-1,-2,1756999502587048768
0,4.958164692,20250904112502587,None,8,231.5447998046875,0,0,-2,-5,-3,-1,0,1,1756999502587177038
0,4.965783835,20250904112502595,None,8,229.87901306152344,0,-1,0,-1,0,2,0,0,1756999502594955444
0,4.965949059,20250904112502595,None,8,229.87901306152344,-3,0,-3,-1,0,-3,0,-2,1756999502595165729
0,4.973286867,20250904112502602,None,8,231.06886291503906,-2,-3,-5,-1,1,-2,1,0,1756999502602471351
0,4.973495961,20250904112502603,None,8,231.06886291503906,1,-1,0,0,-1,1,0,2,1756999502602675437
0,4.980849743,20250904112502610,None,8,230.59292602539062,-3,-1,2,-2,1,-1,5,3,1756999502610007762
0,4.98099041,20250904112502610,None,8,230.59292602539062,1,-3,0,-3,-1,-2,-6,-1,1756999502610249757
0,4.995897293,20250904112502625,None,8,230.59292602539062,-1,0,-1,1,1,-1,-3,0,1756999502625008344
0,4.9960534580000004,20250904112502625,None,8,230.59292602539062,1,-1,-3,-6,0,-2,-1,1,1756999502625255823
0,5.003355742,20250904112502632,None,8,231.06886291503906,-2,-3,-4,1,-3,-3,0,-1,1756999502632536172
0,5.003484488,20250904112502632,None,8,231.06886291503906,-1,-2,1,1,3,4,3,-1,1756999502632752895
0,5.010828972,20250904112502640,None,8,230.1169891357422,-1,1,1,-3,-1,-2,0,0,1756999502640007019
0,5.010965824,20250904112502640,None,8,230.1169891357422,0,2,-1,2,3,-2,1,-1,1756999502640223503
0,5.025418043,20250904112502654,None,8,229.403076171875,-1,-2,0,0,-3,-2,1,-2,1756999502654634475
0,5.025556803,20250904112502655,None,8,229.403076171875,1,-1,-3,-1,-1,0,2,1,1756999502654777526
0,5.03292346,20250904112502662,None,8,229.403076171875,0,2,0,-1,-4,-2,-1,-3,1756999502662152290
0,5.033044815,20250904112502662,None,8,229.403076171875,-3,-5,-1,-1,-2,-1,-3,-1,1756999502662348508
0,5.040571928,20250904112502670,None,8,231.5447998046875,-1,2,0,1,-3,-1,-4,-4,1756999502669770240
0,5.040828467,20250904112502670,None,8,231.5447998046875,-3,0,1,1,7,4,-2,1,1756999502670046806
0,5.055360079,20250904112502684,None,8,231.06886291503906,1,-1,1,0,0,-1,-1,-3,1756999502684584856
0,5.055489064,20250904112502684,None,8,231.06886291503906,2,-1,1,1,0,3,-1,1,1756999502684712886
0,5.063256026,20250904112502692,None,8,230.1169891357422,-1,0,-7,-2,-3,-2,0,0,1756999502692328214
0,5.063430548,20250904112502692,None,8,230.1169891357422,0,-3,-2,3,-4,-1,-1,1,1756999502692526340
0,5.078220368,20250904112502707,None,8,230.35494995117188,-4,1,4,0,1,-5,-4,-1,1756999502707309961
0,5.078374625,20250904112502707,None,8,230.35494995117188,-2,-2,-3,0,-1,-2,-2,-1,1756999502707506418
0,5.085646153,20250904112502715,None,8,230.83090209960938,-1,1,2,-1,-3,0,1,-1,1756999502714745044
0,5.085802794,20250904112502715,None,8,230.83090209960938,-3,-5,-1,0,0,2,3,-1,1756999502714948654
0,5.09320283,20250904112502722,None,8,229.87901306152344,2,-1,-1,-3,0,-3,-8,-5,1756999502722283601
0,5.093348265,20250904112502722,None,8,229.87901306152344,2,2,-3,-1,0,2,-2,1,1756999502722473144
0,5.108310223,20250904112502737,None,8,229.64105224609375,-3,-1,-1,-1,-1,-2,-1,0,1756999502737328529
0,5.108465195,20250904112502737,None,8,229.64105224609375,0,-2,-2,-4,-4,-3,-1,1,1756999502737529516
0,5.115689993,20250904112502745,None,8,229.64105224609375,-1,2,-1,1,10,16,2,0,1756999502744800806
0,5.115802288,20250904112502745,None,8,229.64105224609375,-3,-3,0,-2,-1,-4,1,-1,1756999502745002746
0,5.123181105,20250904112502752,None,8,231.5447998046875,-2,2,0,-6,-7,-5,0,-2,1756999502752310514
0,5.123315096,20250904112502752,None,8,231.5447998046875,0,0,-1,4,-1,-3,0,-3,1756999502752497434
0,5.138304234,20250904112502767,None,8,231.3068389892578,1,-1,-2,0,-1,-1,-4,-1,1756999502767302989
0,5.138492823,20250904112502767,None,8,231.3068389892578,1,2,1,-3,-4,0,-3,0,1756999502767499685
0,5.145840168,20250904112502775,None,8,230.35494995117188,-1,-1,-4,-2,-3,-3,1,0,1756999502774821281
0,5.146019459,20250904112502775,None,8,230.35494995117188,2,-3,0,1,-3,1,-2,0,1756999502775026798
0,5.153259278,20250904112502782,None,8,230.83090209960938,-1,0,1,2,1,1,3,0,1756999502782330274
0,5.153431177,20250904112502782,None,8,230.83090209960938,0,-1,-3,-2,-7,-3,1,-4,1756999502782527446
0,5.168197394,20250904112502797,None,8,230.83090209960938,1,-1,1,4,2,1,2,0,1756999502797276973
0,5.168339014,20250904112502797,None,8,230.83090209960938,0,-4,-4,-5,-10,-3,-2,-2,1756999502797462224
0,5.175715208,20250904112502805,None,8,229.64105224609375,-2,-1,0,0,2,-5,-3,0,1756999502804772138
0,5.175887108,20250904112502805,None,8,229.64105224609375,-3,-4,-3,-1,2,0,4,-1,1756999502804959535
0,5.1831038,20250904112502812,None,8,231.06886291503906,-1,-4,-2,-5,-4,0,1,-1,1756999502812142848
0,5.183238268,20250904112502812,None,8,231.06886291503906,0,-1,-1,-4,-6,0,-1,-5,1756999502812281370
0,5.198111773,20250904112502827,None,8,229.87901306152344,2,-1,-3,0,-4,0,3,-2,1756999502827138900
0,5.198320389,20250904112502827,None,8,229.87901306152344,-2,-4,0,-1,-2,-5,-5,-4,1756999502827268838
0,5.205241919,20250904112502834,None,8,231.3068389892578,-1,3,2,3,4,-1,-1,-1,1756999502834535837
0,5.2053346640000004,20250904112502834,None,8,231.3068389892578,-2,-4,3,-1,-2,1,-3,0,1756999502834647893
0,5.212826968,20250904112502842,None,8,229.87901306152344,-2,-4,-4,-1,0,-1,-2,-1,1756999502842042922
0,5.212969065,20250904112502842,None,8,229.87901306152344,1,-1,1,0,-2,0,-1,-1,1756999502842170715
0,5.24482131,20250904112502874,None,8,231.06886291503906,0,-1,1,-3,-3,-3,-4,1,1756999502873867273
0,5.245023728,20250904112502874,None,8,231.06886291503906,-1,0,-2,-1,-3,-2,1,1,1756999502874189853
0,5.245422364,20250904112502874,None,8,230.83090209960938,-2,-2,1,-3,2,3,-3,-4,1756999502874742746
0,5.245507717,20250904112502875,None,8,230.83090209960938,2,0,-1,-2,-2,0,-3,-2,1756999502874869108
0,5.246037722,20250904112502875,None,8,230.83090209960938,-1,0,0,-3,-8,-3,2,0,1756999502875412702
0,5.246152163,20250904112502875,None,8,230.83090209960938,2,0,-1,1,3,0,1,-1,1756999502875519514
0,5.257987738,20250904112502887,None,8,230.35494995117188,2,-1,2,-2,-1,-1,-3,-2,1756999502887154340
0,5.258122206,20250904112502887,None,8,230.35494995117188,-1,-2,-2,-2,-3,-4,-2,-1,1756999502887334346
0,5.26543665,20250904112502894,None,8,231.5447998046875,-3,-3,0,-3,-4,-1,-3,-2,1756999502894670248
0,5.265596629,20250904112502895,None,8,231.5447998046875,-3,-4,-3,-3,0,-1,0,-2,1756999502894835472
0,5.272875548,20250904112502902,None,8,231.5447998046875,-1,-2,-1,-1,-2,-5,0,-1,1756999502902125120
0,5.272994995,20250904112502902,None,8,231.5447998046875,4,1,-1,-1,0,1,-6,1,1756999502902265787
0,5.287903786,20250904112502917,None,8,231.5447998046875,3,-4,-4,-1,-1,1,1,2,1756999502917069911
0,5.288038969,20250904112502917,None,8,231.5447998046875,0,1,-1,1,-1,-2,-3,-2,1756999502917203664
0,5.295360327,20250904112502924,None,8,229.64105224609375,1,3,1,-2,-1,-1,5,1,1756999502924597978
0,5.295473099,20250904112502924,None,8,229.64105224609375,3,-3,1,-4,-6,-10,-3,0,1756999502924730300
0,5.310354948,20250904112502939,None,8,229.87901306152344,-2,0,-1,-3,5,12,-1,-1,1756999502939588069
0,5.310489178,20250904112502939,None,8,229.87901306152344,-1,2,1,6,4,-6,-4,1,1756999502939718723
0,5.317714692,20250904112502947,None,8,229.87901306152344,0,-3,-3,-1,-3,-3,0,0,1756999502947002172
0,5.317820549,20250904112502947,None,8,229.87901306152344,-2,-1,-7,-2,-6,-5,-1,-6,1756999502947109699
0,5.325398445,20250904112502954,None,8,230.83090209960938,-1,0,-3,1,2,-1,-1,-2,1756999502954612016
0,5.325552464,20250904112502955,None,8,230.83090209960938,1,-4,-3,-2,-2,0,0,-1,1756999502954741239
0,5.3404526709999995,20250904112502969,None,8,230.35494995117188,0,-2,2,-1,-1,1,0,-2,1756999502969609498
0,5.340600491,20250904112502970,None,8,230.35494995117188,1,0,-5,0,1,-1,0,2,1756999502969748020
0,5.347780228,20250904112502977,None,8,231.3068389892578,-2,-4,-2,1,2,1,-2,-3,1756999502977047920
0,5.347904683,20250904112502977,None,8,231.3068389892578,-1,0,-1,-4,-4,-3,-5,-3,1756999502977158069
0,5.355289221,20250904112502984,None,8,231.3068389892578,-3,-3,-2,-2,0,0,-5,-2,1756999502984579324
0,5.355395556,20250904112502984,None,8,231.3068389892578,0,-1,-1,0,0,-3,-1,1,1756999502984699487
0,5.362707854,20250904112502992,None,8,229.64105224609375,-2,-1,-2,-1,-4,-3,-1,-3,1756999502991984844
0,5.362850428,20250904112502992,None,8,229.64105224609375,0,3,2,-3,-2,-4,1,1,1756999502992099285
0,5.377923727,20250904112503007,None,8,229.87901306152344,-5,0,-2,7,2,0,-2,0,1756999503007116317
0,5.378064394,20250904112503007,None,8,229.87901306152344,0,-3,-2,-6,-5,-3,-2,1,1756999503007258176
0,5.385349989,20250904112503014,None,8,231.5447998046875,-2,0,-1,2,1,-2,0,2,1756999503014617919
0,5.385478497,20250904112503014,None,8,231.5447998046875,-1,-1,-2,-5,0,-3,0,-1,1756999503014740228
0,5.392971993,20250904112503022,None,8,231.5447998046875,1,-1,-2,-4,-1,0,1,1,1756999503022156238
0,5.39311719,20250904112503022,None,8,231.5447998046875,0,-2,-1,0,4,4,-2,0,1756999503022346258
0,5.40821147,20250904112503037,None,8,230.59292602539062,0,-4,-1,-1,-6,-3,1,0,1756999503037100553
0,5.408517123,20250904112503038,None,8,230.59292602539062,0,2,0,1,5,3,-2,-3,1756999503037266731
0,5.415224314,20250904112503044,None,8,230.59292602539062,-3,-3,-1,2,0,-1,-3,-1,1756999503044487476
0,5.415344,20250904112503044,None,8,230.59292602539062,-1,-1,0,-2,-2,1,-1,0,1756999503044600486
0,5.423017025,20250904112503052,None,8,230.35494995117188,-3,1,-1,-2,0,-2,3,-1,1756999503052031040
0,5.423250437,20250904112503052,None,8,230.35494995117188,-2,0,-1,0,-1,-3,-4,-1,1756999503052160024
0,5.437910557,20250904112503067,None,8,230.83090209960938,-3,-2,0,-1,2,1,-1,-3,1756999503067069530
0,5.438120365,20250904112503067,None,8,230.83090209960938,-1,-1,0,-2,-2,-5,-2,-1,1756999503067192554
0,5.453512192,20250904112503083,None,8,231.5447998046875,2,0,0,3,0,1,-1,1,1756999503082703590
0,5.453656674,20250904112503083,None,8,231.5447998046875,3,1,-1,-2,-2,-1,-3,-2,1756999503082836389
0,5.454243899,20250904112503083,None,8,231.5447998046875,-2,-1,-3,-3,-1,1,3,1,1756999503083569765
0,5.454335213,20250904112503083,None,8,231.5447998046875,0,-1,0,1,2,-3,-1,-2,1756999503083683013
0,5.467828036,20250904112503097,None,8,231.3068389892578,1,3,2,3,0,0,4,4,1756999503097034215
0,5.467968226,20250904112503097,None,8,231.3068389892578,0,0,0,-2,-3,-1,-2,-6,1756999503097156047
0,5.47548604,20250904112503105,None,8,231.3068389892578,-1,-1,1,-1,-2,-6,-1,-1,1756999503104651927
0,5.4756701,20250904112503105,None,8,231.3068389892578,-1,-6,-1,-7,-15,-2,1,0,1756999503104851245
0,5.482890845,20250904112503112,None,8,229.87901306152344,-3,0,-2,2,4,-11,-5,-2,1756999503112092256
0,5.483039618,20250904112503112,None,8,229.87901306152344,2,-2,-2,5,16,20,1,-2,1756999503112297058
0,5.497710467,20250904112503127,None,8,230.35494995117188,-3,1,-3,0,-5,-2,1,-1,1756999503126955509
0,5.497835398,20250904112503127,None,8,230.35494995117188,-1,0,3,1,-6,-5,-2,2,1756999503127073764
0,5.505256415,20250904112503134,None,8,230.35494995117188,2,1,-1,-2,-3,-2,3,-2,1756999503134506464
0,5.5054044730000005,20250904112503134,None,8,230.35494995117188,-1,1,-1,-3,1,0,1,-1,1756999503134624481
0,5.512591362,20250904112503142,None,8,230.35494995117188,1,1,-2,-1,-2,0,-2,0,1756999503141898870
0,5.512695551,20250904112503142,None,8,230.35494995117188,0,-1,2,1,-1,-1,-6,0,1756999503142003059
0,5.527884722,20250904112503157,None,8,230.1169891357422,-2,-4,-3,-3,-3,-6,-6,-4,1756999503157067537
0,5.528069735,20250904112503157,None,8,230.1169891357422,0,0,-1,0,-5,0,1,0,1756999503157217979
0,5.535393954,20250904112503164,None,8,231.5447998046875,-4,-2,1,6,3,1,1,1,1756999503164589405
0,5.535576105,20250904112503165,None,8,231.5447998046875,-1,0,1,-4,-1,-2,-1,-4,1756999503164709568
0,5.542838097,20250904112503172,None,8,229.403076171875,-2,-3,-3,1,-1,-2,-1,-1,1756999503172065973
0,5.542992354,20250904112503172,None,8,229.403076171875,-2,0,3,4,0,1,-1,0,1756999503172185897
0,5.557808876,20250904112503187,None,8,231.3068389892578,1,1,0,-2,-3,-1,-2,-2,1756999503187034130
0,5.5580074790000005,20250904112503187,None,8,231.3068389892578,-1,1,-3,0,-5,-2,0,-1,1756999503187159538
0,5.565391302,20250904112503194,None,8,229.64105224609375,-1,1,-1,1,0,0,-1,1,1756999503194645166
0,5.565565348,20250904112503195,None,8,229.64105224609375,3,0,-2,-1,2,0,-1,-4,1756999503194770336
0,5.572945118,20250904112503202,None,8,231.06886291503906,3,-1,-1,-4,-3,2,0,-1,1756999503202049732
0,5.573110819,20250904112503202,None,8,231.06886291503906,-4,-2,2,1,2,-2,-3,-1,1756999503202171802
0,5.588004113,20250904112503217,None,8,230.83090209960938,-1,-1,0,2,1,-1,0,0,1756999503217103719
0,5.588174105,20250904112503217,None,8,230.83090209960938,-3,-1,2,-4,1,-1,-1,-2,1756999503217248201
0,5.595574618,20250904112503225,None,8,231.06886291503906,1,0,-2,-2,-2,-2,4,1,1756999503224634885
0,5.595718623,20250904112503225,None,8,231.06886291503906,-3,-3,-4,-6,-6,-8,-7,-4,1756999503224766731
0,5.603016138,20250904112503232,None,8,231.06886291503906,1,-2,-1,0,0,-4,-2,-1,1756999503232176542
0,5.603157521,20250904112503232,None,8,231.06886291503906,-1,0,1,6,4,0,1,0,1756999503232259273
0,5.6183514599999995,20250904112503247,None,8,231.06886291503906,-3,-6,-2,-7,-4,-3,-2,-2,1756999503247168779
0,5.618571043,20250904112503248,None,8,231.06886291503906,-2,-6,-5,1,-3,0,-1,-4,1756999503247249841
0,5.625721217,20250904112503255,None,8,229.64105224609375,0,-1,-1,0,0,0,3,2,1756999503254619359
0,5.625976086,20250904112503255,None,8,229.64105224609375,-1,3,1,-4,-1,0,-4,-4,1756999503254740238
0,5.633064509,20250904112503262,None,8,229.64105224609375,-3,-1,-2,2,-2,-1,-4,-3,1756999503262109279
0,5.633248806,20250904112503262,None,8,229.64105224609375,-1,1,-4,-3,-4,-5,-2,0,1756999503262221574
0,5.648040772,20250904112503277,None,8,229.87901306152344,2,-3,-1,-3,-4,-3,1,-1,1756999503277220964
0,5.648195505,20250904112503277,None,8,229.87901306152344,2,-1,1,2,3,2,-1,-1,1756999503277370452
0,5.6554076680000005,20250904112503284,None,8,231.06886291503906,3,-1,-2,1,-1,-1,-4,-1,1756999503284650564
0,5.655530453,20250904112503285,None,8,231.06886291503906,-4,-2,-3,-3,-1,-1,4,1,1756999503284769535
0,5.662982941,20250904112503292,None,8,230.1169891357422,0,1,0,1,0,-1,-2,-1,1756999503292171955
0,5.663103581,20250904112503292,None,8,230.1169891357422,1,-2,-4,0,2,-2,0,-3,1756999503292252063
0,5.686109543,20250904112503315,None,8,230.83090209960938,-1,-3,-5,-1,-3,-5,-5,0,1756999503315340518
0,5.6863007549999995,20250904112503315,None,8,230.83090209960938,-1,1,-1,1,-1,1,1,-3,1756999503315496444
0,5.686663628,20250904112503316,None,8,230.83090209960938,2,4,1,-5,-4,2,2,0,1756999503316004753
0,5.686783314,20250904112503316,None,8,230.83090209960938,-2,0,-1,-1,0,0,2,1,1756999503316112279
0,5.692898512,20250904112503322,None,8,230.1169891357422,-2,-1,-2,-3,5,11,3,0,1756999503322115421
0,5.69303155,20250904112503322,None,8,230.1169891357422,-3,0,1,1,-1,-4,-1,-3,1756999503322255849
0,5.707996607,20250904112503337,None,8,229.64105224609375,1,-1,4,-3,-5,-9,-3,-2,1756999503337128639
0,5.708175421,20250904112503337,None,8,229.64105224609375,1,-3,-1,-1,0,-3,-1,-2,1756999503337306022
0,5.715486527,20250904112503345,None,8,229.64105224609375,1,-2,-1,-5,-3,-1,-2,1,1756999503344670295
0,5.715883255,20250904112503345,None,8,229.64105224609375,-2,1,-1,4,-1,-3,2,2,1756999503344869136
0,5.722933293,20250904112503352,None,8,231.5447998046875,-1,1,1,1,3,0,1,1,1756999503352089881
0,5.723111868,20250904112503352,None,8,231.5447998046875,1,1,-2,-5,-5,-1,-2,-3,1756999503352289438
0,5.737801552,20250904112503367,None,8,231.3068389892578,-2,5,0,-3,2,2,-4,-2,1756999503367042064
0,5.737928629,20250904112503367,None,8,231.3068389892578,1,1,1,-2,-2,2,-4,1,1756999503367168188
0,5.745319844,20250904112503374,None,8,230.1169891357422,1,-3,-1,-1,-1,-2,3,-1,1756999503374599456
0,5.745436669,20250904112503374,None,8,230.1169891357422,-2,0,-2,-1,1,-3,-1,3,1756999503374758720
0,5.752797366,20250904112503382,None,8,230.1169891357422,0,0,-1,0,2,3,-4,-3,1756999503382057905
0,5.7530944349999995,20250904112503382,None,8,230.83090209960938,0,1,-1,0,-2,-1,-2,-4,1756999503382195234
0,5.784239292,20250904112503413,None,8,231.06886291503906,-2,-2,1,2,-2,0,0,-2,1756999503413464307
0,5.784383059,20250904112503413,None,8,231.06886291503906,0,-2,0,-1,-1,-5,-3,0,1756999503413645744
0,5.784854889,20250904112503414,None,8,231.06886291503906,-2,-2,-1,0,6,-1,-5,1,1756999503414168834
0,5.784934283,20250904112503414,None,8,231.06886291503906,0,2,2,-1,0,-1,-4,-2,1756999503414280414
0,5.785620213,20250904112503415,None,8,231.06886291503906,1,1,-3,-1,-7,2,5,1,1756999503414983749
0,5.78568554,20250904112503415,None,8,231.06886291503906,-1,1,-2,3,-1,-2,-6,-2,1756999503415083169
0,5.798307419,20250904112503427,None,8,229.87901306152344,-1,-1,-4,-1,1,2,1,0,1756999503427484273
0,5.798522711,20250904112503428,None,8,229.87901306152344,2,-1,0,-1,0,1,-3,0,1756999503427693843
0,5.805461645,20250904112503434,None,8,231.3068389892578,-1,1,0,-5,-3,-3,-1,1,1756999503434751510
0,5.805533886,20250904112503435,None,8,231.3068389892578,1,-1,-3,-1,-1,-1,2,-2,1756999503434898614
0,5.813350201,20250904112503442,None,8,229.87901306152344,2,-2,0,3,0,1,-1,-1,1756999503442577600
0,5.8134613040000005,20250904112503442,None,8,229.87901306152344,-4,0,-3,-3,0,-2,-3,-1,1756999503442749023
0,5.827906371,20250904112503457,None,8,230.1169891357422,1,0,-1,2,-2,2,-1,-1,1756999503457119941
0,5.8280327320000005,20250904112503457,None,8,230.1169891357422,-1,-4,-4,-5,-5,1,-2,-2,1756999503457274913
0,5.835355997,20250904112503464,None,8,230.1169891357422,-1,-1,1,-1,0,0,-3,-1,1756999503464615345
0,5.835474968,20250904112503464,None,8,230.1169891357422,-2,-1,-2,3,-1,-2,-1,-2,1756999503464790821
0,5.850458145,20250904112503479,None,8,230.83090209960938,0,1,1,3,4,1,-4,-5,1756999503479633331
0,5.8506295680000004,20250904112503480,None,8,230.83090209960938,-1,1,0,4,1,1,-3,0,1756999503479794263
0,5.858205796,20250904112503487,None,8,230.59292602539062,0,-3,0,-1,-4,0,1,-1,1756999503487040519
0,5.85861826,20250904112503488,None,8,230.59292602539062,2,-3,-4,-1,-1,-2,-1,3,1756999503487156152
0,5.865431786,20250904112503494,None,8,231.3068389892578,-1,-2,2,3,-2,-2,-2,-2,1756999503494628190
0,5.865560294,20250904112503495,None,8,231.3068389892578,-1,-2,-5,-3,0,-3,0,4,1756999503494813442
0,5.872663498,20250904112503502,None,8,231.3068389892578,-3,0,0,0,-8,-20,-5,-4,1756999503501996040
0,5.8727664950000005,20250904112503502,None,8,231.3068389892578,1,0,0,0,6,18,0,-2,1756999503502097129
0,5.887852431,20250904112503517,None,8,231.5447998046875,-1,-5,-3,-4,-2,-3,2,-2,1756999503517052650
0,5.887989045,20250904112503517,None,8,231.5447998046875,0,0,1,0,0,-10,1,-1,1756999503517206430
0,5.8953089720000005,20250904112503524,None,8,229.403076171875,-1,0,0,-1,-4,-2,0,1,1756999503524538516
0,5.895469189,20250904112503524,None,8,229.403076171875,0,0,-1,-3,-3,-3,-2,0,1756999503524740695
0,5.902852774,20250904112503532,None,8,231.5447998046875,0,0,-2,1,2,1,-1,1,1756999503532091617
0,5.902977944,20250904112503532,None,8,231.5447998046875,0,-2,-1,1,1,-1,2,-1,1756999503532223463
0,5.918076039,20250904112503547,None,8,230.1169891357422,2,-4,-4,-3,0,2,0,-3,1756999503547023296
0,5.918377877,20250904112503547,None,8,230.83090209960938,-1,0,2,0,3,0,-2,-3,1756999503547111749
0,5.925544024,20250904112503555,None,8,230.83090209960938,0,1,-3,-2,1,-1,-2,2,1756999503554569244
0,5.925724745,20250904112503555,None,8,230.83090209960938,0,-3,-1,0,-1,0,-1,0,1756999503554708957
0,5.932985783,20250904112503562,None,8,230.59292602539062,-2,-2,-2,-3,1,1,-2,-3,1756999503561988353
0,5.933152676,20250904112503562,None,8,230.59292602539062,-1,2,2,4,-1,-2,2,1,1756999503562099933
0,5.964416027,20250904112503593,None,8,231.3068389892578,-3,2,0,-3,5,2,-2,0,1756999503593411684
0,5.964612007,20250904112503594,None,8,231.3068389892578,-2,-1,1,0,0,0,-1,0,1756999503593548774
0,5.964807749,20250904112503594,None,8,231.3068389892578,1,-2,-3,-6,-6,-1,-2,0,1756999503594104766
0,5.964901686,20250904112503594,None,8,231.3068389892578,0,-4,-1,2,4,1,1,0,1756999503594219207
0,5.965926886,20250904112503595,None,8,231.3068389892578,-5,-2,-1,4,-2,1,-5,-1,1756999503594935655
0,5.966122628,20250904112503595,None,8,231.3068389892578,1,3,1,-1,-1,2,0,1,1756999503595043182
0,5.978029251,20250904112503607,None,8,229.64105224609375,0,-1,-1,-3,2,-3,-1,-2,1756999503607015848
0,5.978208542,20250904112503607,None,8,229.64105224609375,2,2,2,0,0,-1,0,2,1756999503607136487
0,5.985512257,20250904112503615,None,8,231.78277587890625,-1,-5,-2,0,-1,-1,1,1,1756999503614535093
0,5.985691071,20250904112503615,None,8,231.78277587890625,-3,1,-1,0,-1,-1,-2,0,1756999503614639759
0,6.001071453,20250904112503630,None,8,231.06886291503906,-1,1,0,-1,-1,-2,1,-5,1756999503629980325
0,6.001302481,20250904112503630,None,8,231.06886291503906,-4,-1,-2,-2,-5,-3,-3,-2,1756999503630089998
0,6.007985354,20250904112503637,None,8,231.06886291503906,-3,-1,0,0,-1,5,1,-2,1756999503636987924
0,6.008117676,20250904112503637,None,8,231.06886291503906,1,-4,0,-2,2,0,-3,-3,1756999503637092590
0,6.015246392,20250904112503644,None,8,230.59292602539062,-1,1,-1,2,-2,-5,-5,-1,1756999503644441604
0,6.015369892,20250904112503644,None,8,230.59292602539062,-4,-6,-6,-4,-3,-4,-2,-3,1756999503644538402
0,6.030247689,20250904112503659,None,8,231.06886291503906,-2,0,-3,-2,0,-1,-1,-1,1756999503659535884
0,6.030363798,20250904112503659,None,8,231.06886291503906,-1,-3,-1,-4,-5,-4,-3,-2,1756999503659636735
0,6.037857533,20250904112503667,None,8,230.1169891357422,1,0,0,-1,3,1,-4,-1,1756999503667040586
0,6.0380373,20250904112503667,None,8,230.1169891357422,-4,-1,-2,-2,-3,-1,-1,1,1756999503667154788
0,6.045284033,20250904112503674,None,8,230.1169891357422,1,0,-1,0,0,-1,2,-3,1756999503674552679
0,6.045399905,20250904112503674,None,8,230.1169891357422,-1,2,-3,0,2,-1,-2,-3,1756999503674665689
0,6.060209513,20250904112503689,None,8,229.87901306152344,0,-1,-2,-1,-3,4,1,-2,1756999503689510107
0,6.060308695,20250904112503689,None,8,229.87901306152344,-1,-2,-3,-3,-8,-3,-2,0,1756999503689608097
0,6.067620755,20250904112503697,None,8,231.78277587890625,-3,-4,-3,-1,16,10,-1,-1,1756999503696978092
0,6.067693234,20250904112503697,None,8,231.78277587890625,1,3,1,5,2,-1,0,0,1756999503697077751
0,6.075287581,20250904112503704,None,8,230.1169891357422,0,1,-1,0,-2,-6,0,-2,1756999503704572677
0,6.075378895,20250904112503704,None,8,230.1169891357422,2,1,0,0,-1,0,-1,-4,1756999503704683780
0,6.090237618,20250904112503719,None,8,231.06886291503906,-1,-1,-3,-5,-1,0,-1,0,1756999503719560861
0,6.090327978,20250904112503719,None,8,231.06886291503906,-2,-2,-1,-3,-1,-2,1,-1,1756999503719666719
0,6.097784758,20250904112503727,None,8,230.35494995117188,-2,-2,1,-1,-4,-2,-3,1,1756999503726970672
0,6.097888947,20250904112503727,None,8,230.35494995117188,-3,-3,-1,-3,-3,-4,-3,-1,1756999503727091550
0,6.105307579,20250904112503734,None,8,230.35494995117188,-2,-2,-4,-1,-4,0,-1,-3,1756999503734534978
0,6.105399847,20250904112503734,None,8,230.35494995117188,-1,-1,-3,3,0,4,-1,-3,1756999503734647035
0,6.120411396,20250904112503749,None,8,231.06886291503906,0,4,3,-1,-1,2,-1,0,1756999503749641180
0,6.120528221,20250904112503750,None,8,231.06886291503906,2,0,-1,-1,0,-3,1,0,1756999503749786615
0,6.127754212,20250904112503757,None,8,230.1169891357422,2,1,-2,0,0,-1,-3,3,1756999503757017850
0,6.128126383,20250904112503757,None,8,230.1169891357422,0,2,0,0,0,3,9,1,1756999503757132291
