gt,time_elapsed,current_time,current_task,motor_position,futek,emg0,emg1,emg2,emg3,emg4,emg5,emg6,emg7,emg_timer_stamp
0,0.04852581,20250904112308073,None,0,230.35494995117188,0,0,-4,-2,-3,1,1,0,1756999388072930812
0,0.048679352,20250904112308073,None,0,230.35494995117188,-2,0,-1,-1,-2,-2,1,-1,1756999388073070764
0,0.063513279,20250904112308088,None,0,228.45120239257812,-2,-1,-1,-1,2,-1,-2,-3,1756999388087930917
0,0.063757658,20250904112308088,None,0,228.45120239257812,-1,-1,-1,0,-1,1,0,-3,1756999388088074684
0,0.070888519,20250904112308095,None,0,229.87901306152344,-3,1,0,-1,3,0,-2,-1,1756999388095371723
0,0.071007728,20250904112308095,None,0,229.87901306152344,-1,0,-2,2,-1,0,3,2,1756999388095477104
0,0.078378677,20250904112308103,None,0,228.6891632080078,-2,-1,-2,-1,-1,1,-3,-2,1756999388102864980
0,0.078507185,20250904112308103,None,0,228.6891632080078,0,0,1,-1,-3,-2,-4,-1,1756999388102969646
0,0.085885048,20250904112308110,None,0,229.64105224609375,0,-1,-3,-3,0,-4,-1,2,1756999388110368251
0,0.08597517,20250904112308110,None,0,229.64105224609375,1,-2,1,1,0,-2,2,-2,1756999388110481500
0,0.100830316,20250904112308125,None,0,229.16510009765625,-4,2,-3,-2,-1,1,2,-1,1756999388125334262
0,0.100933075,20250904112308125,None,0,229.16510009765625,2,-3,-1,-3,0,-3,-1,-1,1756999388125461339
0,0.116180181,20250904112308140,None,0,229.64105224609375,-1,-2,0,0,-2,-2,0,1,1756999388140519857
0,0.116367817,20250904112308141,None,0,229.64105224609375,0,1,0,-2,-2,-1,-1,0,1756999388140682458
0,0.123708009,20250904112308148,None,0,228.92713928222656,-2,-2,0,-2,0,0,-3,-1,1756999388148013830
0,0.12400341,20250904112308148,None,0,228.92713928222656,-1,0,3,-1,1,-1,4,0,1756999388148188591
0,0.131202936,20250904112308155,None,0,230.1169891357422,0,-2,0,-2,0,3,1,1,1756999388155517339
0,0.13135457,20250904112308156,None,0,230.1169891357422,-2,-1,-1,1,0,-3,-4,-4,1756999388155688047
0,0.138624668,20250904112308163,None,0,230.1169891357422,-1,3,-3,-3,1,1,-3,0,1756999388163007259
0,0.138776541,20250904112308163,None,0,230.1169891357422,-4,-4,-3,0,-3,-1,-1,0,1756999388163161754
0,0.146161556,20250904112308170,None,0,228.45120239257812,0,-1,0,-1,-2,-2,4,1,1756999388170540332
0,0.14637661,20250904112308171,None,0,228.45120239257812,0,-3,0,-1,-1,0,-1,-1,1756999388170722484
0,0.161069393,20250904112308185,None,0,228.45120239257812,-1,-2,-1,0,2,-4,-7,0,1756999388185472249
0,0.161314487,20250904112308186,None,0,228.45120239257812,-1,1,2,1,-1,0,1,1,1756999388185704946
0,0.168409824,20250904112308193,None,0,230.1169891357422,-1,-6,-1,-2,0,2,-1,-1,1756999388192908048
0,0.168501615,20250904112308193,None,0,230.1169891357422,0,-5,-1,-3,-2,-1,-3,1,1756999388193033695
0,0.18354392,20250904112308208,None,0,229.403076171875,-1,-1,-1,1,-1,-2,-2,2,1756999388207962512
0,0.183667183,20250904112308208,None,0,229.403076171875,1,1,-1,-2,2,0,0,1,1756999388208109378
0,0.191082954,20250904112308215,None,0,229.87901306152344,0,0,-2,0,-1,-1,1,2,1756999388215491533
0,0.191230058,20250904112308215,None,0,229.87901306152344,-1,1,-1,-1,0,3,0,2,1756999388215638875
0,0.198450565,20250904112308223,None,0,229.87901306152344,0,-1,1,1,2,-2,0,-1,1756999388222918033
0,0.198578357,20250904112308223,None,0,229.87901306152344,-2,-3,-1,-1,-3,0,-2,0,1756999388223042249
0,0.206142902,20250904112308230,None,0,228.92713928222656,-3,0,-3,-4,-1,0,-5,-3,1756999388230504512
0,0.206343889,20250904112308231,None,0,228.92713928222656,0,-2,1,0,-1,0,3,0,1756999388230659008
0,0.220992088,20250904112308245,None,0,229.87901306152344,0,0,-4,2,0,-2,-5,-2,1756999388245454072
0,0.221228122,20250904112308245,None,0,228.6891632080078,1,-1,-1,0,0,-1,-2,-1,1756999388245584964
0,0.228479624,20250904112308253,None,0,228.6891632080078,1,0,1,-3,1,-1,0,-2,1756999388252941370
0,0.228661775,20250904112308253,None,0,228.6891632080078,-4,-2,-1,-2,0,1,-2,1,1756999388253072738
0,0.243599891,20250904112308268,None,0,228.6891632080078,1,-5,-2,0,0,-1,0,-2,1756999388267970800
0,0.243723869,20250904112308268,None,0,228.6891632080078,-3,-2,-1,-2,-1,-2,-1,-1,1756999388268108129
0,0.251075506,20250904112308275,None,0,230.1169891357422,2,-1,-3,-2,-2,3,-1,-1,1756999388275513887
0,0.251215219,20250904112308275,None,0,230.1169891357422,-1,2,1,-1,-4,-3,-6,0,1756999388275649785
0,0.258545398,20250904112308283,None,0,228.92713928222656,-2,0,1,-7,1,0,0,1,1756999388282957077
0,0.258679151,20250904112308283,None,0,228.92713928222656,-2,-3,-4,-2,0,-1,-1,0,1756999388283089399
0,0.266072988,20250904112308290,None,0,228.92713928222656,-2,2,-1,0,1,0,2,-3,1756999388290517091
0,0.266223907,20250904112308290,None,0,228.92713928222656,-2,-3,0,1,0,-1,-3,-1,1756999388290651559
0,0.281038522,20250904112308305,None,0,229.403076171875,1,2,-1,0,0,-3,-3,-2,1756999388305481910
0,0.281195402,20250904112308305,None,0,229.403076171875,0,1,0,-2,2,-1,-1,-1,1756999388305624723
0,0.296195984,20250904112308320,None,0,229.64105224609375,-2,-3,-3,-1,1,2,0,-2,1756999388320576667
0,0.296385288,20250904112308321,None,0,229.64105224609375,0,-1,0,-1,1,-1,-1,1,1756999388320820569
0,0.303481102,20250904112308328,None,0,229.64105224609375,-2,-2,-3,0,0,-2,-1,-1,1756999388327932596
0,0.303748369,20250904112308328,None,0,229.64105224609375,0,4,-1,2,2,1,0,-1,1756999388328121900
0,0.311017513,20250904112308335,None,0,228.6891632080078,-1,-5,-1,-3,-1,0,-5,1,1756999388335522890
0,0.311169386,20250904112308335,None,0,228.6891632080078,-2,-3,-2,-5,-1,0,2,2,1756999388335660219
0,0.318454742,20250904112308343,None,0,230.35494995117188,-2,6,0,1,3,-1,-4,1,1756999388342964649
0,0.318632364,20250904112308343,None,0,230.35494995117188,-2,0,0,0,-1,-1,1,-3,1756999388343081951
0,0.326012134,20250904112308350,None,0,228.6891632080078,-2,0,-1,2,0,1,0,-1,1756999388350464105
0,0.326171636,20250904112308350,None,0,228.6891632080078,-4,-4,-3,-1,-1,-1,-2,-1,1756999388350573062
0,0.34128499,20250904112308366,None,0,230.35494995117188,-3,-2,2,-1,-3,1,-1,0,1756999388365593671
0,0.341559887,20250904112308366,None,0,230.35494995117188,-2,-1,-2,1,-1,0,-1,0,1756999388365772247
0,0.348508358,20250904112308373,None,0,228.6891632080078,1,1,-3,-1,-3,0,-1,-2,1756999388372943162
0,0.348842382,20250904112308373,None,0,228.6891632080078,1,-1,2,-1,-2,-1,1,1,1756999388373079776
0,0.363560199,20250904112308388,None,0,229.16510009765625,-1,-1,-5,1,1,-1,-3,-2,1756999388388001680
0,0.363708734,20250904112308388,None,0,229.16510009765625,-1,3,-4,-3,-4,1,-1,-1,1756999388388156175
0,0.370974302,20250904112308395,None,0,229.403076171875,-4,0,-3,-1,1,0,-1,-3,1756999388395489454
0,0.3711164,20250904112308395,None,0,229.403076171875,-1,-3,-2,2,-1,-1,3,-1,1756999388395609855
0,0.378502607,20250904112308403,None,0,230.35494995117188,0,-2,-2,0,1,-5,-3,-2,1756999388402984142
0,0.378632784,20250904112308403,None,0,230.35494995117188,1,0,0,-1,-1,-1,-4,-1,1756999388403126955
0,0.393497228,20250904112308418,None,0,229.16510009765625,2,1,-3,-1,0,-2,-1,-2,1756999388417976856
0,0.393646478,20250904112308418,None,0,229.16510009765625,-2,-1,-1,0,2,0,2,-2,1756999388418128967
0,0.40099287,20250904112308425,None,0,230.59292602539062,0,0,0,-2,0,0,1,-4,1756999388425497293
0,0.401086569,20250904112308425,None,0,230.59292602539062,0,1,-1,-1,-2,-3,-1,0,1756999388425644636
0,0.408437252,20250904112308433,None,0,228.6891632080078,1,1,1,-3,-5,0,-1,-1,1756999388432936906
0,0.408549785,20250904112308433,None,0,228.6891632080078,-3,0,0,-2,0,0,-4,-2,1756999388433064937
0,0.423576832,20250904112308448,None,0,230.1169891357422,-2,-1,0,-3,-4,0,-3,-1,1756999388448029279
0,0.423681497,20250904112308448,None,0,230.1169891357422,1,-3,-1,-1,1,-3,4,3,1756999388448198795
0,0.430891037,20250904112308455,None,0,228.92713928222656,1,1,-1,-2,-2,2,0,-1,1756999388455420494
0,0.431007385,20250904112308455,None,0,228.92713928222656,-1,-5,-2,-2,1,1,3,-4,1756999388455527305
0,0.438537597,20250904112308463,None,0,229.64105224609375,-1,-2,-4,-2,0,1,2,-2,1756999388462999105
0,0.438644647,20250904112308463,None,0,229.64105224609375,0,-3,0,-1,1,0,-2,1,1756999388463142156
0,0.453447819,20250904112308478,None,0,229.403076171875,1,0,-1,-3,2,-1,-4,0,1756999388477929353
0,0.453555584,20250904112308478,None,0,229.403076171875,0,0,-3,-2,0,0,3,-4,1756999388478075504
0,0.460980415,20250904112308485,None,0,229.403076171875,-3,1,1,-2,-3,2,1,-4,1756999388485488891
0,0.461094856,20250904112308485,None,0,229.403076171875,1,-5,-1,0,-2,-1,3,-1,1756999388485640287
0,0.468576669,20250904112308493,None,0,229.87901306152344,-1,-1,-4,-1,2,-1,-1,0,1756999388492961645
0,0.468791485,20250904112308493,None,0,229.87901306152344,-3,-3,-3,-1,-2,-5,-3,0,1756999388493115425
0,0.483631372,20250904112308508,None,0,230.59292602539062,-1,-3,2,-3,1,0,-1,-1,1756999388508026838
0,0.483775854,20250904112308508,None,0,230.59292602539062,-1,-1,0,-3,-2,-2,-1,-1,1756999388508198499
0,0.491060972,20250904112308515,None,0,228.6891632080078,-2,-1,0,-1,0,0,-1,0,1756999388515516042
0,0.491208076,20250904112308515,None,0,228.6891632080078,1,0,-2,-2,-1,1,-4,-1,1756999388515661478
0,0.498385429,20250904112308523,None,0,230.59292602539062,-2,-2,1,-2,-3,-4,-3,-2,1756999388522878408
0,0.498472929,20250904112308523,None,0,230.59292602539062,0,-3,1,0,0,-1,-1,-2,1756999388522997617
0,0.513496399,20250904112308538,None,0,228.92713928222656,4,0,-2,2,-1,1,0,4,1756999388537951707
0,0.513642311,20250904112308538,None,0,228.92713928222656,0,0,-3,-1,-2,-4,2,0,1756999388538087368
0,0.520946979,20250904112308545,None,0,229.87901306152344,-3,2,-2,-1,-4,-2,-2,2,1756999388545444965
0,0.521246433,20250904112308545,None,0,229.87901306152344,0,-1,5,-3,-4,-3,1,-1,1756999388545653820
0,0.52862525,20250904112308553,None,0,229.16510009765625,-1,0,0,-2,-1,0,1,0,1756999388552996397
0,0.52876544,20250904112308553,None,0,229.16510009765625,0,-1,-3,3,1,0,-2,-1,1756999388553191661
0,0.543745517,20250904112308568,None,0,229.64105224609375,-1,0,0,-5,-2,0,2,0,1756999388568018198
0,0.544024229,20250904112308568,None,0,229.64105224609375,-1,4,0,-4,0,-2,-4,-1,1756999388568180322
0,0.551055431,20250904112308575,None,0,229.64105224609375,1,-3,-3,0,0,-4,-3,-3,1756999388575490474
0,0.551166296,20250904112308575,None,0,229.64105224609375,-2,0,-2,-2,2,0,4,1,1756999388575624227
0,0.55858469,20250904112308583,None,0,228.92713928222656,-2,-2,-1,-2,-1,-4,-1,1,1756999388583036661
0,0.558725834,20250904112308583,None,0,228.92713928222656,-1,0,-1,-2,-5,1,1,0,1756999388583236694
0,0.573517561,20250904112308598,None,0,228.6891632080078,1,0,4,0,1,-2,-2,-1,1756999388597957372
0,0.573667526,20250904112308598,None,0,228.6891632080078,-4,1,-3,-3,1,-1,-1,0,1756999388598130226
0,0.581373453,20250904112308606,None,0,228.6891632080078,0,2,-4,-1,-1,-3,-2,1,1756999388605540513
0,0.581661701,20250904112308606,None,0,228.6891632080078,-4,-9,-2,-1,-1,2,2,2,1756999388605692148
0,0.58850646,20250904112308613,None,0,230.1169891357422,1,-1,0,-1,1,0,-1,-4,1756999388612963676
0,0.588657379,20250904112308613,None,0,230.1169891357422,0,3,1,0,1,1,0,-1,1756999388613137245
0,0.603592634,20250904112308628,None,0,230.1169891357422,-1,1,-2,-1,1,-2,-1,-2,1756999388628018379
0,0.603745699,20250904112308628,None,0,230.1169891357422,1,1,-2,2,2,1,1,1,1756999388628170967
0,0.611376285,20250904112308636,None,0,229.16510009765625,3,2,3,1,3,1,0,-1,1756999388635506391
0,0.611801624,20250904112308636,None,0,229.16510009765625,0,-4,-1,-2,-4,1,-4,-1,1756999388635656118
0,0.618552208,20250904112308643,None,0,229.403076171875,-4,-5,1,1,-4,-1,-5,-2,1756999388642963886
0,0.61870861,20250904112308643,None,0,229.403076171875,0,-2,-1,1,-2,-6,-7,-1,1756999388643102645
0,0.633567571,20250904112308658,None,0,229.64105224609375,2,1,0,-1,-1,1,5,4,1756999388657993078
0,0.633673191,20250904112308658,None,0,229.64105224609375,0,-2,0,2,-3,1,-1,0,1756999388658198118
0,0.640942573,20250904112308665,None,0,228.92713928222656,-3,-1,1,-1,-1,0,1,-3,1756999388665445327
0,0.64103651,20250904112308665,None,0,228.92713928222656,-1,0,0,-2,-3,-2,-3,-2,1756999388665593862
0,0.648549795,20250904112308673,None,0,230.35494995117188,2,0,0,-1,2,-3,-3,2,1756999388673014163
0,0.648654222,20250904112308673,None,0,230.35494995117188,3,-3,-2,-2,-3,-1,-1,-1,1756999388673186779
0,0.663453817,20250904112308688,None,0,228.6891632080078,0,1,2,-1,1,2,3,0,1756999388687958002
0,0.663626909,20250904112308688,None,0,228.6891632080078,-3,-2,-2,-4,-2,-1,0,0,1756999388688123464
0,0.670926094,20250904112308695,None,0,230.1169891357422,-3,2,1,2,1,-1,1,-1,1756999388695449352
0,0.671006679,20250904112308695,None,0,230.1169891357422,-2,2,-2,-2,-2,-4,-1,-2,1756999388695591688
0,0.678510427,20250904112308703,None,0,228.21322631835938,-1,-2,-2,0,-2,-7,-2,-6,1756999388702985763
0,0.678682565,20250904112308703,None,0,228.21322631835938,-1,-1,0,-3,2,0,5,-1,1756999388703124523
0,0.693551779,20250904112308718,None,0,228.92713928222656,-2,-3,1,0,-4,2,0,-1,1756999388717950105
0,0.693743944,20250904112308718,None,0,228.92713928222656,0,3,2,-2,2,-2,-1,-2,1756999388718089580
0,0.700977564,20250904112308725,None,0,229.64105224609375,-2,-2,0,-2,-5,-2,-4,-1,1756999388725465774
0,0.701073169,20250904112308725,None,0,229.64105224609375,-3,-3,-1,-1,1,-4,-2,-1,1756999388725614070
0,0.708402157,20250904112308733,None,0,229.64105224609375,-2,-1,-3,1,2,1,-1,-2,1756999388732933998
0,0.708487034,20250904112308733,None,0,229.64105224609375,-1,1,0,-1,0,-2,-4,0,1756999388733066797
0,0.731637954,20250904112308756,None,0,229.87901306152344,-2,0,3,-1,-2,-1,2,1,1756999388756087779
0,0.731731415,20250904112308756,None,0,229.87901306152344,-1,4,-2,-1,1,-5,1,-3,1756999388756236076
0,0.732334614,20250904112308757,None,0,229.87901306152344,-1,-2,2,1,-2,1,0,0,1756999388756872177
0,0.7324965,20250904112308757,None,0,229.87901306152344,-3,-3,-3,-2,0,-2,-2,-1,1756999388757054805
0,0.738495826,20250904112308763,None,0,228.6891632080078,-2,-3,3,-1,-3,-1,-1,-2,1756999388762977600
0,0.738634109,20250904112308763,None,0,228.6891632080078,-1,-3,-6,-1,1,2,-1,0,1756999388763165712
0,0.753478765,20250904112308778,None,0,230.35494995117188,-2,0,-3,-1,-2,0,-3,-1,1756999388777949810
0,0.753620386,20250904112308778,None,0,230.35494995117188,-1,2,2,0,1,1,1,-3,1756999388778091192
0,0.760854959,20250904112308785,None,0,228.6891632080078,0,-3,0,-1,-1,-3,0,0,1756999388785392522
0,0.760981321,20250904112308785,None,0,228.6891632080078,-1,-2,-4,-1,-1,-1,0,1,1756999388785511016
0,0.768481016,20250904112308793,None,0,230.1169891357422,0,-2,-3,-2,-2,2,2,-3,1756999388792951107
0,0.768767118,20250904112308793,None,0,230.1169891357422,-1,-1,1,0,1,1,0,0,1756999388793104648
0,0.78358674,20250904112308808,None,0,229.16510009765625,-1,-2,1,0,-1,0,-1,-2,1756999388807935714
0,0.783781528,20250904112308808,None,0,229.16510009765625,0,1,0,-2,-2,0,-2,-1,1756999388808094978
0,0.790862798,20250904112308815,None,0,229.87901306152344,1,-2,2,-1,-4,-3,0,2,1756999388815409183
0,0.790963888,20250904112308815,None,0,229.87901306152344,-1,0,-1,2,-1,2,1,0,1756999388815521001
0,0.798451185,20250904112308823,None,0,229.16510009765625,-2,3,1,0,-3,-2,-3,-4,1756999388822931289
0,0.798567533,20250904112308823,None,0,229.16510009765625,-2,-3,1,-4,1,-3,-1,-4,1756999388823081731
0,0.813514948,20250904112308838,None,0,229.87901306152344,0,-2,-3,-1,-2,1,2,0,1756999388837955474
0,0.813649654,20250904112308838,None,0,229.87901306152344,0,-4,-2,-3,-1,-3,0,0,1756999388838102102
0,0.820921898,20250904112308845,None,0,228.45120239257812,1,2,1,3,0,-3,1,1,1756999388845418214
0,0.821087837,20250904112308845,None,0,228.45120239257812,-3,-1,0,-1,-3,-1,-4,-2,1756999388845601081
0,0.82864356,20250904112308853,None,0,228.45120239257812,-2,-1,-1,-2,-2,-5,-2,0,1756999388852910757
0,0.828977823,20250904112308853,None,0,228.45120239257812,1,0,-1,-2,0,0,0,1,1756999388853322744
0,0.843858242,20250904112308868,None,0,228.45120239257812,0,2,-2,-1,-2,0,-2,-2,1756999388868222475
0,0.843986034,20250904112308868,None,0,228.45120239257812,-3,-2,1,-3,-1,2,1,0,1756999388868477344
0,0.851201772,20250904112308875,None,0,229.87901306152344,0,2,2,2,-3,1,-2,1,1756999388875673532
0,0.85131216,20250904112308876,None,0,229.87901306152344,-1,0,-3,-2,-3,-6,-5,-1,1756999388875877141
0,0.858857155,20250904112308883,None,0,228.92713928222656,-1,2,1,-2,-1,-1,-4,-3,1756999388883220911
0,0.858946085,20250904112308883,None,0,228.92713928222656,0,2,-1,-1,2,-3,0,-2,1756999388883528232
0,0.873582363,20250904112308898,None,0,229.87901306152344,1,0,2,-2,1,-3,1,1,1756999388898008584
0,0.873698711,20250904112308898,None,0,229.87901306152344,-3,-3,1,1,-2,-3,-3,0,1756999388898209571
0,0.881033659,20250904112308905,None,0,229.16510009765625,-2,-3,0,2,2,1,-2,-1,1756999388905438423
0,0.881221294,20250904112308905,None,0,229.16510009765625,0,-1,-1,-2,-4,-5,5,0,1756999388905587673
0,0.888437271,20250904112308913,None,0,229.16510009765625,-1,1,-1,-1,-2,3,-3,-3,1756999388912873506
0,0.888605356,20250904112308913,None,0,229.16510009765625,-2,-2,1,1,0,-1,-1,0,1756999388912981271
0,0.903516769,20250904112308928,None,0,229.87901306152344,-1,0,1,0,2,1,0,0,1756999388927921772
0,0.90378499,20250904112308928,None,0,229.87901306152344,0,-3,-1,-3,-4,1,0,0,1756999388928045988
0,0.910883188,20250904112308935,None,0,228.45120239257812,-2,2,-3,0,2,-1,-2,-3,1756999388935424566
0,0.911004781,20250904112308935,None,0,228.45120239257812,-2,-4,-2,0,-1,-1,-1,-3,1756999388935550451
0,0.918508291,20250904112308943,None,0,230.35494995117188,-1,-10,-4,-3,1,-2,-4,-1,1756999388942899703
0,0.918658256,20250904112308943,None,0,230.35494995117188,-2,-5,-3,-3,0,-3,-3,-5,1756999388943025112
0,0.93342638,20250904112308958,None,0,230.35494995117188,-2,4,-1,-3,-1,3,1,4,1756999388957879066
0,0.93360877,20250904112308958,None,0,230.35494995117188,-1,-1,0,0,0,0,1,1,1756999388957998752
0,0.940984964,20250904112308965,None,0,230.35494995117188,-3,0,1,0,0,-3,-2,-4,1756999388965473651
0,0.941083431,20250904112308965,None,0,230.35494995117188,-1,-1,0,0,-1,-1,-1,-1,1756999388965638875
0,0.948324203,20250904112308973,None,0,228.6891632080078,0,1,-2,0,2,-1,-2,0,1756999388972853899
0,0.948413133,20250904112308973,None,0,228.6891632080078,-3,-2,-3,0,-2,3,1,-4,1756999388972955703
0,0.963423967,20250904112308988,None,0,229.403076171875,-4,-2,-3,-1,0,0,-1,-3,1756999388987913846
0,0.963587999,20250904112308988,None,0,229.403076171875,-3,-1,-4,-2,1,-1,0,-2,1756999388988035440
0,0.970971346,20250904112308995,None,0,229.403076171875,-3,-1,-2,-3,-1,-2,-2,-3,1756999388995460033
0,0.971103668,20250904112308995,None,0,229.403076171875,-3,1,-1,-3,3,-3,1,-2,1756999388995591878
0,0.978432655,20250904112309003,None,0,229.403076171875,-3,0,0,-1,-3,3,-3,1,1756999389002933025
0,0.978626728,20250904112309003,None,0,229.87901306152344,-1,0,0,-2,-4,-1,2,-2,1756999389003054618
0,0.993478775,20250904112309018,None,0,228.92713928222656,-1,-2,3,0,0,-2,-3,-2,1756999389017876386
0,0.993678808,20250904112309018,None,0,228.92713928222656,3,0,-1,-3,0,-1,1,-1,1756999389018037796
0,1.001000881,20250904112309025,None,0,230.1169891357422,0,2,-1,0,-2,1,2,-2,1756999389025485992
0,1.001106024,20250904112309025,None,0,230.1169891357422,-1,-2,0,-1,-1,-1,0,0,1756999389025646924
0,1.008392334,20250904112309033,None,0,228.92713928222656,0,-5,1,2,0,-2,0,1,1756999389032899141
0,1.008495569,20250904112309033,None,0,228.92713928222656,-1,4,-3,-1,0,1,3,1,1756999389033044576
0,1.023554325,20250904112309048,None,0,230.59292602539062,-2,-5,-4,-1,0,1,-1,-3,1756999389047968864
0,1.023673534,20250904112309048,None,0,230.59292602539062,0,1,2,-2,-2,-1,1,-1,1756999389048133850
0,1.03091073,20250904112309055,None,0,229.16510009765625,0,1,-2,0,1,-3,0,-3,1756999389055407285
0,1.031000614,20250904112309055,None,0,229.16510009765625,-1,0,0,-4,1,-1,-4,-3,1756999389055541515
0,1.038501739,20250904112309063,None,0,230.35494995117188,0,2,0,-6,-6,-2,-4,0,1756999389062969923
0,1.038633823,20250904112309063,None,0,230.35494995117188,1,0,1,0,-1,1,2,-1,1756999389063117265
0,1.053878546,20250904112309078,None,0,229.403076171875,1,-1,-5,-1,0,1,5,-3,1756999389077983856
0,1.054148674,20250904112309078,None,0,229.403076171875,-2,2,0,2,-1,1,1,-1,1756999389078158140
0,1.061022043,20250904112309085,None,0,229.403076171875,2,-2,-4,2,1,-2,-1,0,1756999389085390090
0,1.061161041,20250904112309085,None,0,229.403076171875,0,2,1,-5,-2,-2,1,1,1756999389085544347
0,1.068378448,20250904112309093,None,0,229.64105224609375,0,2,0,-2,-3,0,-4,-1,1756999389092884540
0,1.0684833519999999,20250904112309093,None,0,229.64105224609375,0,-5,-1,-4,-2,-5,-4,-4,1756999389093024969
0,1.083468675,20250904112309108,None,0,230.1169891357422,-4,-2,-4,-1,-1,0,5,0,1756999389107911825
0,1.083604812,20250904112309108,None,0,230.1169891357422,-3,4,2,-1,-2,0,1,-2,1756999389108052968
0,1.090847254,20250904112309115,None,0,228.6891632080078,3,0,1,-2,-1,-1,-1,1,1756999389115401268
0,1.090930938,20250904112309115,None,0,228.6891632080078,-3,-3,-3,0,-4,-3,-5,-2,1756999389115529298
0,1.098552465,20250904112309123,None,0,230.59292602539062,0,-1,0,0,-1,-2,-2,-2,1756999389122933387
0,1.09866786,20250904112309123,None,0,230.59292602539062,-3,-3,0,-2,-3,-2,4,2,1756999389123075485
0,1.113316774,20250904112309138,None,0,228.92713928222656,-1,2,0,0,-1,0,-1,0,1756999389137822628
0,1.113388061,20250904112309138,None,0,228.92713928222656,2,1,-1,-3,-1,0,-4,-3,1756999389137953758
0,1.121094942,20250904112309145,None,0,229.87901306152344,2,2,-3,0,-1,1,-3,-3,1756999389145366191
0,1.1212871070000001,20250904112309146,None,0,229.87901306152344,-1,3,-2,0,2,1,1,1,1756999389145528793
0,1.128732919,20250904112309153,None,0,228.92713928222656,-2,0,-3,-2,-1,1,2,-3,1756999389152888059
0,1.128953933,20250904112309153,None,0,228.92713928222656,-5,0,1,2,-1,3,1,-1,1756999389153020858
0,1.143816948,20250904112309168,None,0,229.64105224609375,0,-1,-3,-3,-3,1,3,0,1756999389167918920
0,1.143998384,20250904112309168,None,0,229.64105224609375,1,-1,-1,0,-1,-3,-1,-3,1756999389168079614
0,1.150982141,20250904112309175,None,0,229.64105224609375,-1,0,1,-2,2,-1,3,-1,1756999389175457954
0,1.151079178,20250904112309175,None,0,229.64105224609375,-1,-2,1,1,-1,-3,-2,-2,1756999389175615787
0,1.1584343910000001,20250904112309183,None,0,229.403076171875,-2,-3,0,0,-3,-3,-3,1,1756999389182925462
0,1.158547163,20250904112309183,None,0,229.403076171875,-3,-3,-3,-2,-3,-2,0,2,1756999389183062314
0,1.1736373900000001,20250904112309198,None,0,228.6891632080078,-1,-1,2,-1,1,-1,-2,2,1756999389198001384
0,1.173840284,20250904112309198,None,0,228.6891632080078,-1,-3,-1,-3,-2,-2,-5,-1,1756999389198192596
0,1.180932998,20250904112309205,None,0,230.35494995117188,0,-2,-2,-3,-2,4,-1,2,1756999389205402135
0,1.181027412,20250904112309205,None,0,230.35494995117188,-1,1,0,2,-1,-2,-2,1,1756999389205545425
0,1.188729524,20250904112309213,None,0,230.35494995117188,0,-3,0,-2,-3,-3,0,1,1756999389212856531
0,1.189056158,20250904112309213,None,0,230.35494995117188,-1,-2,0,-2,-3,-1,0,-2,1756999389212982416
0,1.203494549,20250904112309228,None,0,229.87901306152344,1,-2,0,2,-3,1,0,0,1756999389227946281
0,1.203674078,20250904112309228,None,0,229.87901306152344,2,3,0,2,-1,-1,-1,2,1756999389228084802
0,1.211193084,20250904112309235,None,0,228.92713928222656,0,-2,-1,0,-2,-4,-6,-3,1756999389235591888
0,1.211347818,20250904112309236,None,0,228.92713928222656,3,-1,-1,-2,-2,2,3,1,1756999389235771179
0,1.218446016,20250904112309243,None,0,229.64105224609375,-2,9,-2,1,0,0,4,-1,1756999389242912769
0,1.218599558,20250904112309243,None,0,229.64105224609375,-8,-15,-3,-1,-3,-3,-1,-2,1756999389243044137
0,1.2336444850000001,20250904112309258,None,0,229.64105224609375,1,-6,-2,-1,0,0,0,-3,1756999389257925271
0,1.2338514329999999,20250904112309258,None,0,229.64105224609375,1,3,3,0,3,-2,0,-2,1756999389258079528
0,1.241253137,20250904112309265,None,0,229.16510009765625,0,3,-2,1,1,-2,-2,-1,1756999389265398025
0,1.241475105,20250904112309266,None,0,229.16510009765625,-2,2,-1,0,-2,-2,-4,-1,1756999389265585422
0,1.24883914,20250904112309273,None,0,230.1169891357422,-2,2,1,-1,1,1,-2,1,1756999389272923231
0,1.249001026,20250904112309273,None,0,230.1169891357422,-2,-1,0,0,-2,-2,1,-5,1756999389273079633
0,1.263590574,20250904112309288,None,0,228.6891632080078,0,1,1,-1,-1,-1,-1,-2,1756999389287914037
0,1.263836622,20250904112309288,None,0,230.35494995117188,0,1,0,0,-2,-3,-1,1,1756999389288059711
0,1.2711036199999999,20250904112309295,None,0,230.35494995117188,-1,2,2,-3,0,-2,-2,0,1756999389295517921
0,1.271238804,20250904112309295,None,0,230.35494995117188,-4,-1,-3,-3,-3,-3,2,-2,1756999389295729875
0,1.285862684,20250904112309310,None,0,230.1169891357422,-1,-1,1,-1,0,-2,-1,0,1756999389310356378
0,1.285982609,20250904112309310,None,0,230.1169891357422,-1,-1,-2,-1,-2,1,-2,0,1756999389310477018
0,1.293575287,20250904112309318,None,0,228.92713928222656,1,2,2,-1,-1,-4,-2,-1,1756999389317972898
0,1.293753385,20250904112309318,None,0,228.92713928222656,0,0,-1,-2,-2,1,1,-1,1756999389318182706
0,1.309172392,20250904112309333,None,0,229.87901306152344,0,0,-2,-1,1,-2,-1,1,1756999389333571434
0,1.309345245,20250904112309334,None,0,229.87901306152344,-3,-4,-2,-3,-1,0,0,0,1756999389333710908
0,1.309787988,20250904112309334,None,0,229.87901306152344,0,0,0,1,-1,-1,0,0,1756999389334357500
0,1.309876919,20250904112309334,None,0,229.87901306152344,1,-2,0,-2,-1,0,0,-2,1756999389334466457
0,1.323481798,20250904112309348,None,0,229.16510009765625,-3,-2,-1,1,1,-2,-1,-1,1756999389347919702
0,1.323633909,20250904112309348,None,0,229.16510009765625,-3,2,2,1,-2,-1,1,0,1756999389348051548
0,1.331127167,20250904112309355,None,0,230.1169891357422,-1,-3,-1,1,-1,-2,-5,-1,1756999389355562686
0,1.331261396,20250904112309355,None,0,230.1169891357422,-4,3,-3,-1,-2,0,-1,-1,1756999389355708599
0,1.346126795,20250904112309370,None,0,228.92713928222656,0,-5,0,0,1,-1,1,3,1756999389370574951
0,1.346252918,20250904112309370,None,0,228.92713928222656,-2,0,-2,1,1,-1,-4,-5,1756999389370715856
0,1.353597641,20250904112309378,None,0,230.1169891357422,1,-4,0,-1,-2,2,-3,-3,1756999389378044128
0,1.353735447,20250904112309378,None,0,230.1169891357422,-2,-3,0,-1,0,-3,0,-1,1756999389378180265
0,1.361618519,20250904112309386,None,0,228.6891632080078,0,1,-1,-3,-1,1,0,2,1756999389386020421
0,1.36174488,20250904112309386,None,0,228.6891632080078,2,3,-3,0,-3,-1,-4,-1,1756999389386270999
0,1.376492738,20250904112309401,None,0,228.92713928222656,0,-5,-1,0,-1,-2,-2,-1,1756999389400907516
0,1.376641989,20250904112309401,None,0,228.92713928222656,-2,-2,-4,-2,-2,-2,1,0,1756999389401126146
0,1.383794069,20250904112309408,None,0,228.92713928222656,-1,0,-1,-4,-1,-3,0,-3,1756999389408062458
0,1.383989572,20250904112309408,None,0,228.92713928222656,1,-1,-1,-5,0,2,1,0,1756999389408365011
0,1.390872955,20250904112309415,None,0,230.1169891357422,0,1,-2,1,-1,1,-2,0,1756999389415358543
0,1.391000747,20250904112309415,None,0,230.1169891357422,-1,-1,0,0,-1,-3,-2,-2,1756999389415479660
0,1.406052351,20250904112309430,None,0,229.16510009765625,2,-1,-3,-1,-2,-4,1,-2,1756999389430471658
0,1.40618062,20250904112309430,None,0,229.16510009765625,1,1,0,1,1,1,2,-2,1756999389430620193
0,1.429197311,20250904112309453,None,0,228.6891632080078,-3,-2,0,-1,1,2,3,0,1756999389453589200
0,1.429376364,20250904112309454,None,0,228.6891632080078,-3,0,1,-1,2,2,0,-1,1756999389453752279
0,1.430095196,20250904112309454,None,0,230.1169891357422,-1,-3,-2,-4,-4,-5,0,-2,1756999389454389095
0,1.430346012,20250904112309455,None,0,230.1169891357422,-1,1,1,1,-1,1,-2,-1,1756999389454551696
0,1.435774088,20250904112309460,None,0,230.1169891357422,-2,0,2,0,1,-2,-7,-3,1756999389460283279
0,1.435881853,20250904112309460,None,0,230.1169891357422,0,1,-2,1,-3,-1,-1,-2,1756999389460448026
0,1.443401813,20250904112309468,None,0,228.45120239257812,1,-1,-3,1,1,1,-2,-1,1756999389467853546
0,1.443516493,20250904112309468,None,0,228.45120239257812,-4,-1,-2,-5,-4,0,2,-1,1756999389468003511
0,1.458572626,20250904112309483,None,0,228.92713928222656,-3,-6,1,-3,0,0,0,-5,1756999389482953786
0,1.458725452,20250904112309483,None,0,228.92713928222656,0,0,-1,-1,-2,-4,-1,-2,1756999389483106374
0,1.466125011,20250904112309490,None,0,228.92713928222656,1,-1,1,3,0,-3,-1,-2,1756999389490432024
0,1.466292143,20250904112309491,None,0,228.92713928222656,-4,-3,-2,-4,-4,2,-3,0,1756999389490600585
0,1.473447561,20250904112309498,None,0,229.87901306152344,-2,0,-1,1,0,-3,0,-1,1756999389497921228
0,1.473588228,20250904112309498,None,0,229.87901306152344,0,-2,-2,0,0,1,4,0,1756999389498055934
0,1.4886193269999999,20250904112309513,None,0,229.403076171875,-1,0,0,-2,2,2,0,1,1756999389512946128
0,1.488848448,20250904112309513,None,0,229.403076171875,0,0,0,-2,0,-1,-2,-2,1756999389513118743
0,1.495861768,20250904112309520,None,0,229.87901306152344,-1,-2,0,-1,-3,1,2,0,1756999389520332336
0,1.495984792,20250904112309520,None,0,229.87901306152344,2,1,-2,-1,-3,0,-1,-1,1756999389520465135
0,1.503405809,20250904112309528,None,0,229.16510009765625,-2,1,1,-3,-1,1,-3,-4,1756999389527876853
0,1.50350523,20250904112309528,None,0,229.16510009765625,1,-1,-4,1,-2,-3,-2,0,1756999389528044223
0,1.5109674929999999,20250904112309535,None,0,229.16510009765625,-2,2,3,2,-2,0,0,2,1756999389535381793
0,1.5110943319999999,20250904112309535,None,0,229.16510009765625,-4,-4,-5,2,0,0,0,1,1756999389535514116
0,1.534179687,20250904112309558,None,0,230.1169891357422,0,-7,-3,-3,-2,0,2,-1,1756999389558583259
0,1.534351587,20250904112309559,None,0,230.1169891357422,-3,0,0,4,1,2,-1,2,1756999389558729648
0,1.534710645,20250904112309559,None,0,230.1169891357422,0,-1,1,-3,-1,0,-1,-2,1756999389559293508
0,1.5347833629999998,20250904112309559,None,0,230.1169891357422,1,-2,-3,-2,-2,-2,-4,-1,1756999389559396266
0,1.540790081,20250904112309565,None,0,228.6891632080078,4,2,1,-1,1,-2,-1,1,1756999389565324068
0,1.54087758,20250904112309565,None,0,228.6891632080078,-1,3,0,-3,-1,3,3,1,1756999389565427780
0,1.556027174,20250904112309580,None,0,229.87901306152344,-3,-9,-2,-2,-2,0,-4,1,1756999389580453872
0,1.556149244,20250904112309580,None,0,229.87901306152344,-2,-2,-2,0,-2,-1,0,0,1756999389580595493
0,1.571643114,20250904112309596,None,0,229.64105224609375,-3,0,4,-2,-3,-4,0,0,1756999389596069097
0,1.571799993,20250904112309596,None,0,229.64105224609375,1,0,0,0,-2,1,2,0,1756999389596210002
0,1.572315454,20250904112309597,None,0,229.64105224609375,-2,0,-3,0,1,0,-2,-1,1756999389596820116
0,1.572437763,20250904112309597,None,0,229.64105224609375,-2,1,-1,-3,-2,-1,0,2,1756999389596964359
0,1.586346388,20250904112309611,None,0,229.403076171875,-1,-3,-4,-3,-2,-2,0,-2,1756999389610701084
0,1.586548567,20250904112309611,None,0,229.403076171875,0,1,-3,-2,-2,-2,0,0,1756999389610885381
0,1.593604564,20250904112309618,None,0,229.16510009765625,0,-2,1,-1,-1,-2,-5,1,1756999389617980480
0,1.593798637,20250904112309618,None,0,229.16510009765625,0,-3,-1,-2,0,0,2,-1,1756999389618185758
0,1.6010921,20250904112309625,None,0,230.35494995117188,-1,0,-1,-4,-5,-1,-1,-1,1756999389625498294
0,1.601245403,20250904112309625,None,0,230.35494995117188,-2,-1,3,0,-2,-2,-4,-3,1756999389625661611
0,1.616549968,20250904112309641,None,0,230.1169891357422,-1,-1,-1,1,0,0,-6,-4,1756999389640922307
0,1.6167118550000001,20250904112309641,None,0,230.1169891357422,0,-5,1,-1,-1,1,2,1,1756999389641089677
0,1.623487949,20250904112309648,None,0,230.1169891357422,3,0,0,2,-3,-1,-3,-2,1756999389647886753
0,1.623729229,20250904112309648,None,0,228.92713928222656,0,0,1,-2,2,-2,1,0,1756999389648031711
0,1.6309111120000002,20250904112309655,None,0,228.92713928222656,-2,2,0,-1,-2,0,-3,0,1756999389655383110
0,1.631034136,20250904112309655,None,0,228.92713928222656,-4,-2,-2,-1,0,-2,-5,-3,1756999389655534744
0,1.646127462,20250904112309670,None,0,229.16510009765625,-3,-3,-1,-4,2,1,-3,-3,1756999389670496463
0,1.6463146210000001,20250904112309671,None,0,229.16510009765625,-2,2,2,-2,-2,0,0,-4,1756999389670665025
0,1.653493404,20250904112309678,None,0,229.64105224609375,-4,-4,-3,3,2,0,-4,-1,1756999389677913427
0,1.653683424,20250904112309678,None,0,229.64105224609375,-1,-3,-2,-2,3,-1,2,2,1756999389678041696
0,1.661150455,20250904112309685,None,0,229.64105224609375,-1,4,-1,0,-3,-1,-2,-3,1756999389685528278
0,1.6613159180000001,20250904112309686,None,0,229.64105224609375,-1,-3,1,-2,-4,-3,2,2,1756999389685735225
0,1.6760799880000001,20250904112309700,None,0,229.16510009765625,-2,-4,-2,2,0,-4,-4,0,1756999389700464725
0,1.6762506959999999,20250904112309700,None,0,229.16510009765625,-1,-2,1,0,-2,0,1,-1,1756999389700629711
0,1.6835522649999999,20250904112309708,None,0,229.87901306152344,-1,2,-3,-1,-3,0,-1,-1,1756999389707919836
0,1.6837089060000001,20250904112309708,None,0,229.87901306152344,2,0,0,2,2,2,3,3,1756999389708078145
0,1.6909141540000001,20250904112309715,None,0,228.92713928222656,-3,-2,2,-1,-2,0,-1,-1,1756999389715405941
0,1.6910424229999999,20250904112309715,None,0,228.92713928222656,-3,-2,-3,2,-3,-4,0,-2,1756999389715545177
0,1.706107139,20250904112309730,None,0,230.35494995117188,-3,-1,1,-3,-1,0,-3,-3,1756999389730470895
0,1.7062771319999999,20250904112309731,None,0,230.35494995117188,-3,-1,-4,-4,-3,3,-1,-1,1756999389730649948
0,1.7134761809999999,20250904112309738,None,0,228.6891632080078,-1,-1,-1,-3,-3,-2,-1,-1,1756999389737947940
0,1.71380043,20250904112309738,None,0,228.6891632080078,1,0,4,-2,-2,-2,-2,0,1756999389738092660
0,1.721025467,20250904112309745,None,0,230.1169891357422,0,-3,-3,0,-1,-2,0,1,1756999389745439767
0,1.721172094,20250904112309745,None,0,230.1169891357422,-3,-1,0,-1,-1,-2,2,0,1756999389745592355
0,1.736137867,20250904112309760,None,0,230.1169891357422,1,1,-1,-1,-3,0,2,-2,1756999389760496616
0,1.736315965,20250904112309761,None,0,230.1169891357422,0,0,-3,-2,-1,0,-2,1,1756999389760675430
0,1.743626833,20250904112309768,None,0,230.1169891357422,-3,-2,0,-3,-4,1,-2,0,1756999389767964363
0,1.74378252,20250904112309768,None,0,230.1169891357422,-2,0,-2,-5,2,0,-2,-1,1756999389768152475
0,1.750992059,20250904112309775,None,0,229.403076171875,0,5,-4,0,0,-4,-1,-1,1756999389775407075
0,1.751180172,20250904112309775,None,0,229.403076171875,-5,-3,-2,0,0,-3,1,-1,1756999389775580644
0,1.7660977839999998,20250904112309790,None,0,229.87901306152344,-2,-4,2,-2,-1,-2,-2,-4,1756999389790425777
0,1.7664361,20250904112309791,None,0,229.87901306152344,-1,0,3,0,-1,-1,0,-1,1756999389790608406
0,1.7734639639999998,20250904112309798,None,0,228.45120239257812,0,-1,-1,-2,-2,-5,3,0,1756999389797914266
0,1.773604631,20250904112309798,None,0,228.45120239257812,-2,0,-2,1,-2,-3,-5,0,1756999389798054456
0,1.7808649540000001,20250904112309805,None,0,228.45120239257812,1,-2,-1,-2,2,-1,-1,-1,1756999389805401086
0,1.780945062,20250904112309805,None,0,228.45120239257812,-1,-1,-1,2,-3,0,0,0,1756999389805526018
0,1.7959394450000001,20250904112309820,None,0,228.45120239257812,1,-3,1,-2,-2,0,-1,-1,1756999389820406675
0,1.796079635,20250904112309820,None,0,228.45120239257812,-1,2,0,-3,-1,0,1,1,1756999389820538282
0,1.803353309,20250904112309828,None,0,229.87901306152344,-1,0,-3,0,0,-1,0,-1,1756999389827861070
0,1.803463459,20250904112309828,None,0,229.87901306152344,-2,-8,-3,-1,0,2,2,-2,1756999389827983856
0,1.810867786,20250904112309835,None,0,228.92713928222656,-1,1,1,1,1,-3,-3,-3,1756999389835416555
0,1.810953855,20250904112309835,None,0,228.92713928222656,-2,2,-1,0,-2,-4,-2,0,1756999389835536956
0,1.8264317509999999,20250904112309851,None,0,230.1169891357422,0,-2,-3,1,-1,-2,-2,1,1756999389850698232
0,1.826651096,20250904112309851,None,0,230.1169891357422,3,0,1,2,1,0,-3,2,1756999389850912570
0,1.8337473869999998,20250904112309858,None,0,229.403076171875,0,-1,5,0,-1,-4,0,-4,1756999389858019113
0,1.833899975,20250904112309858,None,0,229.403076171875,0,-2,-4,-3,-2,2,-1,-1,1756999389858214855
0,1.841732263,20250904112309866,None,0,229.403076171875,-3,3,-3,-1,1,-1,-3,-4,1756999389865568876
0,1.8420021530000001,20250904112309866,None,0,229.403076171875,2,-6,-1,1,-1,1,3,1,1756999389865746974
0,1.856208086,20250904112309880,None,0,228.6891632080078,-1,-1,1,-2,1,0,0,0,1756999389880379438
0,1.856386184,20250904112309881,None,0,228.6891632080078,0,6,0,3,0,-3,-4,0,1756999389880507946
0,1.863891124,20250904112309888,None,0,230.59292602539062,0,-7,3,-1,-1,0,1,0,1756999389887910366
0,1.8640916349999999,20250904112309888,None,0,230.59292602539062,-1,-5,-2,0,0,0,3,-1,1756999389888065338
0,1.871455908,20250904112309896,None,0,230.59292602539062,0,-1,1,1,-2,1,1,2,1756999389895485639
0,1.871705532,20250904112309896,None,0,230.59292602539062,-4,-1,-1,-3,-4,-4,-1,-3,1756999389895654439
0,1.886262417,20250904112309910,None,0,230.1169891357422,-1,2,-2,-2,-4,1,-1,0,1756999389910400629
0,1.8864398,20250904112309911,None,0,230.1169891357422,0,1,-2,-1,-1,0,1,3,1756999389910531520
0,1.893929481,20250904112309918,None,0,228.92713928222656,-2,-3,-2,2,0,-2,0,1,1756999389917944669
0,1.8941276070000002,20250904112309918,None,0,228.92713928222656,-3,-4,-1,1,2,-2,-3,-1,1756999389918107032
0,1.9013390540000001,20250904112309926,None,0,229.87901306152344,0,0,-2,0,-2,-4,-3,-1,1756999389925383567
0,1.90164423,20250904112309926,None,0,229.87901306152344,1,-1,-1,-2,1,-3,0,-2,1756999389925511121
0,1.916465759,20250904112309941,None,0,229.403076171875,-1,-2,-2,-2,2,-1,2,0,1756999389940444707
0,1.916882276,20250904112309941,None,0,229.403076171875,-3,-2,-3,-4,-2,0,0,0,1756999389940610885
0,1.9238438599999999,20250904112309948,None,0,229.64105224609375,-1,-1,2,-1,-4,-1,-1,-1,1756999389947869777
0,1.9240407940000002,20250904112309948,None,0,229.64105224609375,0,1,-3,-1,-1,-3,2,-3,1756999389948033332
0,1.931371212,20250904112309956,None,0,229.64105224609375,1,1,1,-2,1,-1,-1,0,1756999389955407381
0,1.931607485,20250904112309956,None,0,229.64105224609375,-2,0,3,0,1,0,2,-2,1756999389955550909
0,1.946337223,20250904112309971,None,0,230.35494995117188,-1,-4,-2,0,-2,3,-3,1,1756999389970383882
0,1.946579933,20250904112309971,None,0,230.35494995117188,1,0,0,-2,-3,-3,-5,-1,1756999389970525503
0,1.961975336,20250904112309986,None,0,228.45120239257812,2,4,-1,0,-1,2,0,-3,1756999389986114025
0,1.962220192,20250904112309986,None,0,228.45120239257812,0,-4,0,-3,-6,-3,1,0,1756999389986273288
0,1.962372064,20250904112309987,None,0,228.45120239257812,-1,-1,-2,-4,-1,-1,-1,0,1756999389986809015
0,1.9625055790000001,20250904112309987,None,0,228.45120239257812,-6,-3,-1,2,1,2,-2,0,1756999389986972808
0,1.9761343,20250904112310000,None,0,228.92713928222656,2,-1,1,1,-3,-4,0,-1,1756999390000354528
0,1.97627902,20250904112310001,None,0,228.92713928222656,-2,1,1,-1,-1,-2,-1,0,1756999390000487565
0,1.9838874340000001,20250904112310008,None,0,229.87901306152344,0,0,-5,1,-3,-2,-1,-3,1756999390007874965
0,1.984059572,20250904112310008,None,0,229.87901306152344,4,1,-2,-1,1,1,-2,1,1756999390008028984
0,1.9912745950000001,20250904112310016,None,0,229.87901306152344,-4,1,1,-3,0,2,1,-1,1756999390015362977
0,1.991511106,20250904112310016,None,0,229.87901306152344,-1,0,1,1,-2,-2,-3,0,1756999390015503883
0,2.006486177,20250904112310031,None,0,229.64105224609375,-2,-1,-4,-2,-3,-2,-3,-1,1756999390030443191
0,2.006703615,20250904112310031,None,0,229.64105224609375,1,-4,-4,-4,-3,-3,-3,1,1756999390030594587
0,2.013954639,20250904112310038,None,0,229.64105224609375,-1,-2,0,0,-1,2,5,-3,1756999390037932872
0,2.014191627,20250904112310038,None,0,229.64105224609375,0,-1,2,0,-1,0,-2,-3,1756999390038092851
0,2.021378994,20250904112310046,None,0,229.16510009765625,0,2,2,-1,1,-3,-6,1,1756999390045478343
0,2.021617889,20250904112310046,None,0,229.16510009765625,1,2,0,-1,0,1,0,0,1756999390045614242
0,2.036203384,20250904112310060,None,0,229.87901306152344,-1,0,1,0,0,1,-3,0,1756999390060354471
0,2.036461591,20250904112310061,None,0,229.87901306152344,-3,0,-2,-3,-1,-1,0,1,1756999390060476303
0,2.043829441,20250904112310068,None,0,228.6891632080078,-1,1,-1,2,-1,1,3,1,1756999390067869424
0,2.044047832,20250904112310068,None,0,228.6891632080078,-1,1,0,-3,1,0,-1,-3,1756999390068000316
0,2.051329374,20250904112310076,None,0,230.35494995117188,1,0,-1,-4,-1,0,-1,3,1756999390075372457
0,2.051557064,20250904112310076,None,0,230.35494995117188,4,0,-4,-2,-1,0,-3,0,1756999390075503110
0,2.07448864,20250904112310099,None,0,230.35494995117188,-2,0,-1,-2,3,-3,-2,0,1756999390098545312
0,2.0747087,20250904112310099,None,0,230.35494995117188,-7,-6,-2,0,1,1,-3,1,1756999390098693132
0,2.075018406,20250904112310099,None,0,230.35494995117188,-2,-1,-2,-4,-1,-1,-1,-2,1756999390099368333
0,2.075294971,20250904112310100,None,0,230.35494995117188,0,-3,-1,1,-1,-2,-1,0,1756999390099524497
0,2.081292152,20250904112310106,None,0,229.16510009765625,0,1,-3,-3,0,-3,-1,-4,1756999390105346441
0,2.081613302,20250904112310106,None,0,229.16510009765625,1,1,-3,-2,-1,-1,-3,-1,1756999390105480670
0,2.09646225,20250904112310121,None,0,229.64105224609375,0,-2,-1,-1,-1,-1,-1,0,1756999390120467185
0,2.09673357,20250904112310121,None,0,229.64105224609375,-1,-5,0,-3,-2,-1,1,0,1756999390120620965
0,2.103888511,20250904112310128,None,0,228.45120239257812,1,-2,-1,-1,0,-2,-6,-1,1756999390127898931
0,2.104106664,20250904112310128,None,0,228.45120239257812,0,1,0,2,1,-1,0,0,1756999390128044843
0,2.110967397,20250904112310135,None,0,228.45120239257812,-1,4,1,3,-1,-3,-2,-4,1756999390135399103
0,2.111121416,20250904112310135,None,0,228.45120239257812,0,1,0,-1,-3,1,3,-2,1756999390135538339
0,2.125963688,20250904112310150,None,0,228.6891632080078,-3,-1,-1,-2,4,1,-3,-2,1756999390150403022
0,2.126111507,20250904112310150,None,0,228.6891632080078,-1,-2,-1,1,-2,2,5,0,1756999390150544166
0,2.1334908009999998,20250904112310158,None,0,230.35494995117188,-2,1,1,-1,0,-2,0,2,1756999390157870054
0,2.133639335,20250904112310158,None,0,230.35494995117188,0,2,-2,-1,0,-2,-5,-2,1756999390158052444
0,2.141112327,20250904112310165,None,0,228.45120239257812,2,-2,0,-1,3,-3,-1,1,1756999390165370225
0,2.141300201,20250904112310166,None,0,228.45120239257812,-1,0,0,2,-1,0,2,1,1756999390165501832
0,2.156162739,20250904112310180,None,0,230.1169891357422,1,0,-1,0,-2,-1,0,1,1756999390180423974
0,2.156327486,20250904112310181,None,0,230.1169891357422,-1,-1,-4,-3,0,-1,-2,-3,1756999390180595397
0,2.163731813,20250904112310188,None,0,228.92713928222656,2,0,-2,-3,0,1,0,2,1756999390187962532
0,2.163915634,20250904112310188,None,0,228.92713928222656,-2,0,0,-1,-1,0,-2,-2,1756999390188101291
0,2.171131611,20250904112310195,None,0,229.64105224609375,-3,-4,1,1,-4,-3,-4,-3,1756999390195384025
0,2.171310663,20250904112310196,None,0,229.64105224609375,1,-3,-2,2,1,1,-1,-3,1756999390195522069
0,2.186239958,20250904112310210,None,0,229.16510009765625,0,2,-3,0,3,0,-1,0,1756999390210431575
0,2.186434746,20250904112310211,None,0,229.16510009765625,-3,2,1,-4,-3,-1,-2,1,1756999390210582256
0,2.194034815,20250904112310218,None,0,229.16510009765625,-1,-6,-1,-3,-2,0,0,1,1756999390217972040
0,2.194269895,20250904112310218,None,0,229.16510009765625,0,-2,-2,0,0,-3,-3,-2,1756999390218116283
0,2.201040029,20250904112310225,None,0,230.1169891357422,1,1,-1,0,0,-1,0,0,1756999390225310802
0,2.201189995,20250904112310225,None,0,230.1169891357422,-1,-3,-4,-5,-2,-4,-1,-4,1756999390225423574
0,2.21595335,20250904112310240,None,0,230.35494995117188,0,-4,-1,-1,-4,-2,1,0,1756999390240372896
0,2.216099739,20250904112310240,None,0,230.35494995117188,-4,1,0,1,-2,-1,-5,-1,1756999390240523099
0,2.223503589,20250904112310248,None,0,230.35494995117188,-1,0,-1,-2,-3,-2,-2,-1,1756999390247842788
0,2.223898649,20250904112310248,None,0,230.35494995117188,0,3,-2,-3,-2,-1,1,-1,1756999390247991323
0,2.231107712,20250904112310255,None,0,228.6891632080078,-1,-5,1,3,3,1,-4,0,1756999390255425453
0,2.231321335,20250904112310256,None,0,228.6891632080078,0,-2,-5,-4,-1,2,1,2,1756999390255549192
0,2.246269464,20250904112310271,None,0,228.6891632080078,-4,0,-1,1,0,2,2,-2,1756999390270418405
0,2.246494531,20250904112310271,None,0,228.6891632080078,-1,3,-2,1,-1,-3,-3,-3,1756999390270552158
0,2.253836632,20250904112310278,None,0,229.87901306152344,-2,1,-1,-2,-3,-1,0,-1,1756999390277860641
0,2.254055261,20250904112310278,None,0,229.87901306152344,-3,0,-2,-1,1,-2,0,2,1756999390277986288
0,2.261292696,20250904112310286,None,0,229.403076171875,0,-3,1,-2,0,1,-1,1,1756999390285331010
0,2.26151514,20250904112310286,None,0,229.403076171875,-2,3,1,2,0,0,1,2,1756999390285450220
0,2.2764394279999998,20250904112310301,None,0,229.403076171875,-1,3,-2,0,2,-4,-3,-1,1756999390300444841
0,2.276707649,20250904112310301,None,0,229.403076171875,-2,-6,-3,-3,-2,2,0,-2,1756999390300580024
0,2.283752441,20250904112310308,None,0,230.1169891357422,4,-1,1,-3,1,1,-3,-1,1756999390307893514
0,2.283989906,20250904112310308,None,0,230.1169891357422,3,0,-2,-1,-3,0,0,1,1756999390308025360
0,2.298799753,20250904112310323,None,0,229.16510009765625,-3,-4,1,-1,0,1,1,-2,1756999390322838544
0,2.299026966,20250904112310323,None,0,229.16510009765625,-3,1,2,1,0,-1,-4,-2,1756999390322961330
0,2.306237459,20250904112310330,None,0,227.97525024414062,1,-1,-2,-1,0,0,4,1,1756999390330317258
0,2.306436538,20250904112310331,None,0,227.97525024414062,-1,-1,-1,0,-2,0,-4,0,1756999390330421924
0,2.313775778,20250904112310338,None,0,227.97525024414062,-1,-4,-1,-1,0,-2,1,-1,1756999390337806940
0,2.313990354,20250904112310338,None,0,227.97525024414062,0,1,-1,-3,-4,0,-2,0,1756999390337922573
0,2.328829288,20250904112310353,None,0,228.45120239257812,0,-1,-1,1,-1,-2,-1,2,1756999390352869272
0,2.329047203,20250904112310353,None,0,228.45120239257812,-1,1,-1,3,-3,-2,-4,1,1756999390352981567
0,2.336579561,20250904112310361,None,0,229.64105224609375,1,-3,1,1,0,-1,-2,-2,1756999390360970258
0,2.336796283,20250904112310361,None,0,229.64105224609375,0,-1,0,1,-3,1,0,-4,1756999390361081123
0,2.343358755,20250904112310368,None,0,228.92713928222656,-1,-1,1,-2,-1,0,-2,1,1756999390367846727
0,2.343512773,20250904112310368,None,0,228.92713928222656,-1,-4,-2,-1,-1,-2,-3,0,1756999390367961168
0,2.358433008,20250904112310383,None,0,229.64105224609375,-2,-1,0,-2,-1,-3,-2,0,1756999390382880210
0,2.3586020469999998,20250904112310383,None,0,229.64105224609375,-3,2,3,-1,1,0,3,-1,1756999390383004426
0,2.365880251,20250904112310390,None,0,229.87901306152344,1,1,0,-1,0,-1,1,-2,1756999390390364885
0,2.366063118,20250904112310390,None,0,229.87901306152344,-1,0,-1,-1,-1,-3,-1,2,1756999390390495061
0,2.373340845,20250904112310398,None,0,229.16510009765625,3,6,-1,-1,0,2,0,-3,1756999390397832393
0,2.373476028,20250904112310398,None,0,229.16510009765625,-1,-4,0,-2,1,1,0,1,1756999390397938013
0,2.38839674,20250904112310413,None,0,228.6891632080078,-2,-11,1,2,2,-1,-3,1,1756999390412881135
0,2.38856411,20250904112310413,None,0,228.6891632080078,0,-3,-3,2,-2,-1,-5,-3,1756999390413002014
0,2.395861387,20250904112310420,None,0,228.6891632080078,0,2,0,0,-1,-2,-1,-2,1756999390420376300
0,2.395987749,20250904112310420,None,0,228.6891632080078,-1,-4,0,-3,0,-1,-2,0,1756999390420482397
0,2.403360367,20250904112310428,None,0,230.1169891357422,1,0,-3,3,-2,1,-1,-1,1756999390427839756
0,2.4034781450000002,20250904112310428,None,0,230.1169891357422,1,0,1,4,-3,0,-1,1,1756999390427945613
0,2.418400764,20250904112310443,None,0,230.1169891357422,1,1,0,-3,-2,0,-1,-4,1756999390442874670
0,2.418560266,20250904112310443,None,0,230.1169891357422,-1,-1,0,-3,0,1,1,2,1756999390443004131
0,2.425991058,20250904112310450,None,0,230.1169891357422,-4,-2,0,1,1,-3,0,3,1756999390450370073
0,2.426182747,20250904112310450,None,0,230.1169891357422,-2,-2,0,-3,-1,-4,-2,-2,1756999390450586795
0,2.433428764,20250904112310458,None,0,229.403076171875,-1,3,2,-1,3,-1,-2,-1,1756999390457896709
0,2.433583975,20250904112310458,None,0,229.403076171875,-3,-1,-2,-1,-1,1,0,0,1756999390458048105
0,2.448459863,20250904112310473,None,0,229.64105224609375,-3,-4,-4,0,-2,0,0,-2,1756999390472943782
0,2.448565483,20250904112310473,None,0,229.64105224609375,-2,2,1,1,2,-3,-2,1,1756999390473092555
0,2.45588541,20250904112310480,None,0,228.6891632080078,1,-1,-3,-1,-1,-1,2,-3,1756999390480392694
0,2.455969095,20250904112310480,None,0,228.6891632080078,-1,-1,0,-3,-4,0,2,-1,1756999390480524778
0,2.463349104,20250904112310488,None,0,230.1169891357422,0,-4,0,0,0,2,0,0,1756999390487874269
0,2.463443279,20250904112310488,None,0,230.1169891357422,0,0,0,-1,-1,0,2,-1,1756999390488012552
0,2.478316307,20250904112310503,None,0,227.26133728027344,0,-2,0,0,-1,-2,-1,0,1756999390502830505
0,2.478421211,20250904112310503,None,0,227.26133728027344,0,5,1,0,0,-1,2,-1,1756999390502950429
0,2.485924959,20250904112310510,None,0,229.64105224609375,-4,-5,1,-4,-2,0,-1,-2,1756999390510375738
0,2.4860825540000002,20250904112310510,None,0,229.64105224609375,-1,0,0,3,-2,-3,-2,1,1756999390510505437
0,2.493505478,20250904112310518,None,0,228.45120239257812,1,0,0,-1,-3,-3,0,0,1756999390517906427
0,2.493726492,20250904112310518,None,0,228.45120239257812,-1,-1,1,1,1,-1,-1,-1,1756999390518119335
0,2.5084450240000002,20250904112310533,None,0,228.6891632080078,1,-2,-3,-2,-2,-2,4,-3,1756999390532910346
0,2.508603096,20250904112310533,None,0,228.6891632080078,0,-1,0,2,1,1,-3,1,1756999390533048391
0,2.515939951,20250904112310540,None,0,228.6891632080078,-4,0,1,0,0,-3,-1,-2,1756999390540417432
0,2.516079902,20250904112310540,None,0,228.6891632080078,1,4,-1,1,-1,0,0,1,1756999390540538311
0,2.523274898,20250904112310547,None,0,229.403076171875,-3,-4,-2,0,1,-3,-3,3,1756999390547816276
0,2.523390531,20250904112310548,None,0,229.403076171875,-1,-6,0,2,-1,0,4,-3,1756999390547956943
0,2.5383071900000003,20250904112310563,None,0,228.92713928222656,2,1,-3,-1,-1,0,-3,0,1756999390562813997
0,2.538415432,20250904112310563,None,0,228.92713928222656,-2,3,0,1,0,0,-1,0,1756999390562955379
0,2.545999527,20250904112310570,None,0,228.92713928222656,-3,3,-4,-3,-2,-3,-3,-1,1756999390570459604
0,2.546131134,20250904112310570,None,0,228.92713928222656,-1,1,-2,1,2,-1,-1,-2,1756999390570633172
0,2.553540706,20250904112310578,None,0,229.87901306152344,-4,-1,-3,-3,1,-4,-3,-1,1756999390577855825
0,2.5537514679999997,20250904112310578,None,0,229.87901306152344,-3,0,-3,0,-3,-3,-1,-3,1756999390578009843
0,2.56858921,20250904112310593,None,0,230.35494995117188,2,-1,-2,2,-1,1,-2,-2,1756999390592958927
0,2.568736076,20250904112310593,None,0,230.35494995117188,-4,1,-1,-2,-2,-1,-3,-1,1756999390593120813
0,2.5759518139999997,20250904112310600,None,0,228.45120239257812,-1,-2,-1,-1,0,-2,2,-3,1756999390600402116
0,2.5760929580000003,20250904112310600,None,0,228.45120239257812,0,0,2,-2,-2,0,-3,2,1756999390600555181
0,2.583369732,20250904112310608,None,0,228.45120239257812,4,-1,-1,-1,-3,0,-2,1,1756999390607838869
0,2.583466768,20250904112310608,None,0,228.45120239257812,1,2,0,0,1,0,4,-1,1756999390607965707
0,2.598427772,20250904112310623,None,0,228.6891632080078,-3,3,2,0,-3,-5,-4,-6,1756999390622859001
0,2.598606586,20250904112310623,None,0,228.6891632080078,-1,-5,1,-1,0,-1,0,0,1756999390623021364
0,2.605884313,20250904112310630,None,0,229.64105224609375,-2,-1,2,0,0,-2,-3,0,1756999390630372762
0,2.606009722,20250904112310630,None,0,229.64105224609375,1,0,-2,-5,0,3,3,4,1756999390630522012
0,2.613572359,20250904112310638,None,0,229.64105224609375,-2,-2,-2,-1,-5,-2,-2,0,1756999390637980222
0,2.613707781,20250904112310638,None,0,229.64105224609375,0,-3,2,3,-6,-1,-3,-2,1756999390638145208
0,2.62844038,20250904112310653,None,0,229.16510009765625,-1,2,-1,-3,-1,-2,-1,-4,1756999390652889251
0,2.628588199,20250904112310653,None,0,229.16510009765625,-3,1,2,-1,1,-1,-4,-2,1756999390653030872
0,2.636100054,20250904112310660,None,0,230.1169891357422,1,-1,1,3,-1,-3,1,1,1756999390660547256
0,2.6362936489999997,20250904112310661,None,0,230.1169891357422,1,-1,-2,-3,0,-3,-1,2,1756999390660736083
0,2.643167257,20250904112310667,None,0,228.6891632080078,1,0,2,0,0,-1,2,1,1756999390667742252
0,2.643299818,20250904112310668,None,0,228.6891632080078,0,-2,-1,0,-1,-1,-2,-2,1756999390667909145
0,2.65824914,20250904112310682,None,0,228.6891632080078,-2,-4,-2,-1,1,-2,-2,-1,1756999390682766914
0,2.658385753,20250904112310683,None,0,228.6891632080078,1,3,1,-1,-3,-1,0,-3,1756999390682891607
0,2.6659009449999997,20250904112310690,None,0,228.6891632080078,-4,-1,-4,-2,-3,-1,1,0,1756999390690355300
0,2.666074037,20250904112310690,None,0,228.6891632080078,-2,-1,0,0,-2,-2,-3,-2,1756999390690514802
0,2.673401356,20250904112310698,None,0,230.1169891357422,0,-1,2,0,0,-1,-1,3,1756999390697850227
0,2.673569917,20250904112310698,None,0,230.1169891357422,-1,2,-1,-2,2,0,-5,0,1756999390697994709
0,2.688549757,20250904112310713,None,0,229.87901306152344,-2,2,-1,-1,-1,1,2,-2,1756999390712939023
0,2.688708782,20250904112310713,None,0,229.87901306152344,0,-1,-2,0,1,-4,1,-1,1756999390713085412
0,2.695959568,20250904112310720,None,0,229.403076171875,-1,1,0,3,2,-1,0,-2,1756999390720441579
0,2.696107387,20250904112310720,None,0,229.403076171875,-3,-2,-2,0,-1,-3,-1,-3,1756999390720582962
0,2.703533411,20250904112310728,None,0,229.403076171875,-2,-4,-5,-1,-2,-1,1,0,1756999390727877140
0,2.70376873,20250904112310728,None,0,229.403076171875,-3,-1,-1,-3,-1,-2,-2,-1,1756999390728088140
0,2.718441248,20250904112310743,None,0,230.1169891357422,2,0,-1,0,0,-5,-2,-2,1756999390742897033
0,2.718666076,20250904112310743,None,0,230.1169891357422,1,1,0,-1,4,-4,-2,1,1756999390743086338
0,2.7260046,20250904112310750,None,0,228.92713928222656,-1,-1,0,-2,2,1,0,4,1756999390750404119
0,2.726158619,20250904112310750,None,0,228.92713928222656,-3,-2,-1,-4,-4,-1,-1,-2,1756999390750588893
0,2.73342061,20250904112310758,None,0,229.87901306152344,2,1,-2,2,-2,-2,3,-1,1756999390757864475
0,2.733600378,20250904112310758,None,0,229.87901306152344,1,1,-2,-1,-3,2,0,-3,1756999390758032321
0,2.748464346,20250904112310773,None,0,230.1169891357422,-3,0,-1,1,-2,-6,-3,1,1756999390772885560
0,2.748675585,20250904112310773,None,0,230.1169891357422,-1,1,-1,1,-1,-2,-3,-2,1756999390773006439
0,2.755826711,20250904112310780,None,0,230.1169891357422,-3,-4,0,-1,-1,-1,1,-2,1756999390780318498
0,2.755952358,20250904112310780,None,0,230.1169891357422,-1,-2,-2,2,-1,-2,-3,-3,1756999390780419826
0,2.763420582,20250904112310788,None,0,228.45120239257812,1,-1,-2,-4,-3,0,2,-1,1756999390787866592
0,2.763583421,20250904112310788,None,0,228.45120239257812,2,2,1,1,-1,-1,-2,-1,1756999390787986516
0,2.7864315509999997,20250904112310811,None,0,229.64105224609375,-1,-2,-4,-2,1,2,-1,-1,1756999390810934782
0,2.786580086,20250904112310811,None,0,229.64105224609375,0,3,0,-1,0,1,-1,0,1756999390811042308
0,2.7871441839999997,20250904112310811,None,0,229.64105224609375,1,-4,-2,-3,-1,0,0,2,1756999390811702966
0,2.787239551,20250904112310811,None,0,229.64105224609375,-2,-5,-4,-2,-4,-3,1,-1,1756999390811805248
0,2.793359756,20250904112310818,None,0,229.64105224609375,-3,-1,2,1,-1,-2,-3,-3,1756999390817859888
0,2.793510437,20250904112310818,None,0,229.64105224609375,-3,0,1,-1,-2,1,-3,1,1756999390817970514
0,2.808492422,20250904112310833,None,0,228.45120239257812,0,0,2,1,3,-2,-1,-2,1756999390832876205
0,2.808691263,20250904112310833,None,0,228.45120239257812,0,-4,-4,-2,1,1,-2,-1,1756999390833023309
0,2.815924883,20250904112310840,None,0,230.1169891357422,-2,-3,0,-1,0,-2,-2,-1,1756999390840388298
0,2.816063165,20250904112310840,None,0,230.1169891357422,-2,1,-1,0,0,-1,-4,0,1756999390840512275
0,2.823409796,20250904112310848,None,0,228.92713928222656,-3,-1,-2,-4,-1,1,-1,-2,1756999390847829818
0,2.823615551,20250904112310848,None,0,228.92713928222656,2,1,-2,0,-1,2,-2,1,1756999390847943305
0,2.838389635,20250904112310863,None,0,230.59292602539062,-5,0,4,3,0,-4,-1,0,1756999390862818479
0,2.838552713,20250904112310863,None,0,230.59292602539062,-1,-3,-1,0,0,0,2,3,1756999390862931251
0,2.845831632,20250904112310870,None,0,229.16510009765625,-1,-3,0,-3,-1,-4,-2,-1,1756999390870283126
0,2.845975399,20250904112310870,None,0,229.16510009765625,-2,0,-3,-3,0,1,0,1,1756999390870398044
0,2.8533403870000003,20250904112310878,None,0,230.1169891357422,-1,1,3,0,0,2,-2,0,1756999390877821922
0,2.853490352,20250904112310878,None,0,230.1169891357422,-1,-2,-1,-1,0,1,-1,-2,1756999390877928256
0,2.86843276,20250904112310893,None,0,229.403076171875,2,3,0,0,-1,-2,-5,-1,1756999390892877340
0,2.868604898,20250904112310893,None,0,229.403076171875,2,3,2,-1,0,1,0,0,1756999390893033742
0,2.875933647,20250904112310900,None,0,229.64105224609375,-2,0,-2,1,-2,0,2,2,1756999390900371551
0,2.876214504,20250904112310900,None,0,229.64105224609375,-1,-3,-3,0,1,0,0,0,1756999390900485515
0,2.883289337,20250904112310908,None,0,229.64105224609375,-4,-3,-2,-2,-3,-2,-4,-1,1756999390907767057
0,2.883412361,20250904112310908,None,0,229.64105224609375,2,3,-1,-2,0,1,-2,-4,1756999390907879352
0,2.898368835,20250904112310923,None,0,230.35494995117188,2,2,-2,-3,0,4,-3,2,1756999390922822952
0,2.8985035420000003,20250904112310923,None,0,230.35494995117188,0,-1,-3,-3,-1,-3,-2,0,1756999390922943592
0,2.905911445,20250904112310930,None,0,228.6891632080078,-2,-2,-4,-4,-1,0,-2,-1,1756999390930363893
0,2.906024456,20250904112310930,None,0,228.6891632080078,-2,1,-3,-2,0,-2,3,-2,1756999390930534124
0,2.913276911,20250904112310938,None,0,228.6891632080078,-2,-7,1,-1,1,0,-1,0,1756999390937781810
0,2.913411855,20250904112310938,None,0,228.6891632080078,0,-2,-3,-1,1,2,-1,-1,1756999390937903404
0,2.928388595,20250904112310953,None,0,228.92713928222656,-2,-4,-3,-4,-2,0,1,0,1756999390952832221
0,2.928583383,20250904112310953,None,0,228.92713928222656,-1,-2,-1,1,2,-1,1,1,1756999390952945947
0,2.935904026,20250904112310960,None,0,229.87901306152344,-2,3,-2,-1,-1,-1,3,1,1756999390960377693
0,2.93602252,20250904112310960,None,0,229.87901306152344,2,1,1,-1,-3,1,-2,2,1756999390960498571
0,2.9433677190000003,20250904112310968,None,0,229.16510009765625,-1,1,-3,-1,-2,0,-1,-2,1756999390967845201
0,2.94349122,20250904112310968,None,0,229.16510009765625,2,-1,0,1,3,0,-6,-1,1756999390967984914
0,2.958361149,20250904112310983,None,0,229.64105224609375,-1,-4,0,-1,-4,-1,1,-3,1756999390982832908
0,2.958516121,20250904112310983,None,0,229.64105224609375,-2,-7,-3,1,1,0,1,1,1756999390982956886
0,2.96588397,20250904112310990,None,0,229.403076171875,0,-1,1,0,-1,2,2,-1,1756999390990349531
0,2.96602869,20250904112310990,None,0,229.403076171875,-1,-4,0,-1,-1,-2,-3,0,1756999390990481615
0,2.973387718,20250904112310998,None,0,229.16510009765625,-1,2,-3,-3,-1,1,-2,-1,1756999390997868061
0,2.973534345,20250904112310998,None,0,229.16510009765625,0,-3,-2,1,-3,1,0,-2,1756999390997986555
0,2.988376617,20250904112311013,None,0,230.1169891357422,-3,-2,-1,3,-2,-2,-3,-1,1756999391012824058
0,2.988494396,20250904112311013,None,0,230.1169891357422,3,-3,0,0,-1,-3,-3,0,1756999391012938976
0,2.995821237,20250904112311020,None,0,228.45120239257812,2,0,2,-1,-1,-1,-2,0,1756999391020335674
0,2.995942116,20250904112311020,None,0,228.45120239257812,-3,-5,-3,-2,-2,-1,-1,-2,1756999391020452260
0,3.003322124,20250904112311028,None,0,230.35494995117188,-4,-2,2,2,0,-1,1,-1,1756999391027817249
0,3.003454447,20250904112311028,None,0,230.35494995117188,0,-1,2,0,-1,-1,-3,-2,1756999391027937889
0,3.018317699,20250904112311043,None,0,229.16510009765625,-1,3,0,-3,-3,-3,2,4,1756999391042777061
0,3.018477916,20250904112311043,None,0,229.16510009765625,-3,-3,-4,-3,-1,3,-1,0,1756999391042897701
0,3.025864839,20250904112311050,None,0,229.16510009765625,1,-3,0,-1,0,2,5,0,1756999391050359249
0,3.025995016,20250904112311050,None,0,229.16510009765625,-3,1,-3,-3,-3,0,-2,-4,1756999391050498008
0,3.033329725,20250904112311058,None,0,228.6891632080078,-1,0,0,2,2,-2,1,3,1756999391057847738
0,3.033443451,20250904112311058,None,0,228.6891632080078,-3,-1,0,-4,0,0,-2,0,1756999391057965040
0,3.048362493,20250904112311073,None,0,229.64105224609375,0,-3,1,-3,1,-7,-6,-3,1756999391072880744
0,3.048453331,20250904112311073,None,0,229.64105224609375,-1,-3,-3,0,0,2,0,0,1756999391073011398
0,3.055863619,20250904112311080,None,0,229.16510009765625,-2,4,0,0,2,-1,4,-1,1756999391080345869
0,3.055979252,20250904112311080,None,0,229.16510009765625,-3,-2,-3,-1,0,-5,-6,-2,1756999391080470800
0,3.063409805,20250904112311088,None,0,229.16510009765625,0,-4,0,-1,-2,-2,-2,-1,1756999391087862014
0,3.063642263,20250904112311088,None,0,230.1169891357422,-2,2,0,0,-1,-5,0,-3,1756999391088000059
0,3.078430891,20250904112311103,None,0,228.6891632080078,1,-6,1,2,1,-3,-1,-1,1756999391102820396
0,3.078575849,20250904112311103,None,0,228.6891632080078,-1,-1,-1,1,-3,-1,-1,0,1756999391102975130
0,3.08579731,20250904112311110,None,0,230.59292602539062,-1,-1,-3,-3,0,-3,-1,-5,1756999391110319137
0,3.085914135,20250904112311110,None,0,230.59292602539062,0,1,-1,0,-1,-3,-2,2,1756999391110441446
0,3.093336344,20250904112311118,None,0,228.6891632080078,-1,1,1,-1,-2,-2,0,-2,1756999391117789506
0,3.093468427,20250904112311118,None,0,228.6891632080078,0,-4,0,0,0,-1,-1,-5,1756999391117921352
0,3.108452797,20250904112311133,None,0,230.35494995117188,0,3,-4,1,-3,-1,1,-2,1756999391132884502
0,3.108652353,20250904112311133,None,0,230.35494995117188,-2,-1,-3,-2,1,1,-1,-1,1756999391133053779
0,3.11588788,20250904112311140,None,0,228.92713928222656,1,-3,-1,-3,1,-2,1,-3,1756999391140300989
0,3.116008997,20250904112311140,None,0,228.92713928222656,1,-3,0,-5,-3,1,0,0,1756999391140407800
0,3.1233356,20250904112311148,None,0,229.87901306152344,-2,5,0,-1,0,1,0,-4,1756999391147814035
0,3.12346816,20250904112311148,None,0,229.87901306152344,-3,-5,-1,0,0,2,2,1,1756999391147963762
0,3.138325214,20250904112311163,None,0,229.16510009765625,0,-1,0,-2,0,-2,-3,1,1756999391162794828
0,3.138449669,20250904112311163,None,0,229.16510009765625,-1,-1,2,-2,0,3,-2,2,1756999391162918806
0,3.145806312,20250904112311170,None,0,229.16510009765625,0,-1,-4,0,0,-1,-1,-2,1756999391170317411
0,3.145986557,20250904112311170,None,0,229.87901306152344,-1,-1,-2,2,2,-1,-5,-1,1756999391170438289
0,3.1609156130000002,20250904112311185,None,0,228.92713928222656,-3,1,0,1,3,-1,-4,-1,1756999391185350894
0,3.161081552,20250904112311185,None,0,228.92713928222656,0,1,1,-3,-3,2,2,-1,1756999391185465335
0,3.168398618,20250904112311193,None,0,230.35494995117188,-1,0,-4,-4,0,-1,-2,-2,1756999391192852973
0,3.168577671,20250904112311193,None,0,230.35494995117188,-1,0,-1,2,-1,-3,-5,-3,1756999391192966699
0,3.175864219,20250904112311200,None,0,228.6891632080078,-1,0,1,1,3,-1,-3,-3,1756999391200361251
0,3.175981283,20250904112311200,None,0,228.6891632080078,0,-1,-3,-1,-1,1,-2,-2,1756999391200477838
0,3.183267355,20250904112311207,None,0,229.64105224609375,0,-1,-1,-4,-2,-1,-2,0,1756999391207766056
0,3.1833794109999998,20250904112311208,None,0,229.64105224609375,-3,0,0,-1,-2,-4,-4,0,1756999391207887649
0,3.198388099,20250904112311223,None,0,228.6891632080078,3,1,-4,0,-4,4,-1,-2,1756999391222825050
0,3.198540687,20250904112311223,None,0,228.6891632080078,0,-3,-2,-4,-3,2,1,0,1756999391222984552
0,3.205775022,20250904112311230,None,0,229.64105224609375,-4,0,-1,-1,0,-2,-3,-2,1756999391230286598
0,3.205889225,20250904112311230,None,0,229.64105224609375,1,2,3,1,-1,-2,-2,-2,1756999391230410099
0,3.229305506,20250904112311254,None,0,229.64105224609375,1,-3,1,0,0,2,-1,1,1756999391253468751
0,3.229510069,20250904112311254,None,0,229.64105224609375,-2,-1,0,0,-2,-3,-3,-4,1756999391253672122
0,3.229741335,20250904112311254,None,0,229.64105224609375,-1,-4,0,0,-2,-2,-3,2,1756999391254270553
0,3.2298839089999998,20250904112311254,None,0,229.64105224609375,-1,1,-1,0,0,-3,1,0,1756999391254386186
0,3.235975265,20250904112311260,None,0,229.64105224609375,-3,0,1,1,0,1,-1,2,1756999391260354518
0,3.236197233,20250904112311260,None,0,229.64105224609375,0,-3,-2,-2,0,-1,1,-2,1756999391260519504
0,3.250958681,20250904112311275,None,0,230.1169891357422,-1,-1,0,-2,-1,-1,-2,-3,1756999391275384426
0,3.251117468,20250904112311275,None,0,230.1169891357422,1,3,2,2,3,-1,-2,1,1756999391275548219
0,3.25834918,20250904112311283,None,0,228.21322631835938,3,1,2,-2,0,3,4,-1,1756999391282833099
0,3.258463144,20250904112311283,None,0,228.21322631835938,-1,-1,1,-1,-2,3,0,0,1756999391282978534
0,3.265955209,20250904112311290,None,0,230.35494995117188,-2,-2,-1,-1,-3,-4,-3,-1,1756999391290368080
0,3.266134977,20250904112311290,None,0,230.35494995117188,-1,-1,0,-2,1,0,-1,0,1756999391290500164
0,3.280845403,20250904112311305,None,0,228.92713928222656,-2,-2,-5,-1,1,0,-1,0,1756999391305332183
0,3.281023502,20250904112311305,None,0,228.92713928222656,-2,-4,0,2,-1,0,1,-2,1756999391305488109
0,3.288338423,20250904112311313,None,0,229.87901306152344,-1,0,-3,-4,-1,-2,-1,-2,1756999391312819719
0,3.288478374,20250904112311313,None,0,229.87901306152344,-1,-1,-3,-2,3,2,-2,-1,1756999391312934160
0,3.29603219,20250904112311320,None,0,229.16510009765625,1,2,0,0,-3,1,2,-2,1756999391320431709
0,3.296199083,20250904112311320,None,0,229.16510009765625,1,-2,0,-1,-4,1,-2,-3,1756999391320648193
0,3.310807943,20250904112311335,None,0,229.403076171875,-2,-1,-1,-1,0,-5,-1,-1,1756999391335286855
0,3.310943126,20250904112311335,None,0,229.403076171875,1,2,-2,-2,-1,1,-4,-1,1756999391335406303
0,3.31832242,20250904112311343,None,0,229.87901306152344,0,-3,-1,-2,-1,-1,-2,-2,1756999391342821359
0,3.318452596,20250904112311343,None,0,229.87901306152344,1,0,1,0,-1,0,0,4,1756999391342942714
0,3.325913429,20250904112311350,None,0,228.92713928222656,1,-2,-3,-3,-2,2,-3,-4,1756999391350358963
0,3.326073885,20250904112311350,None,0,228.92713928222656,1,-2,1,-2,3,1,-1,-2,1756999391350485563
0,3.349260092,20250904112311374,None,0,228.6891632080078,-2,-1,-2,-1,1,2,1,0,1756999391373629093
0,3.349473953,20250904112311374,None,0,228.6891632080078,-1,-2,0,-4,-4,-6,-5,-3,1756999391373816490
0,3.349709511,20250904112311374,None,0,228.6891632080078,0,0,-3,0,-1,2,5,-1,1756999391374261140
0,3.349813699,20250904112311374,None,0,228.6891632080078,-1,-6,-3,-4,0,1,-4,0,1756999391374384403
0,3.355829954,20250904112311380,None,0,228.6891632080078,-1,4,-3,-5,-2,1,2,0,1756999391380335092
0,3.35594821,20250904112311380,None,0,228.6891632080078,3,0,-2,0,0,-3,-1,1,1756999391380449056
0,3.3709371089999998,20250904112311395,None,0,229.64105224609375,-4,-5,0,1,2,-1,-5,0,1756999391395387887
0,3.371052027,20250904112311395,None,0,229.64105224609375,0,0,0,0,0,1,-3,-2,1756999391395558118
0,3.386233091,20250904112311410,None,0,229.403076171875,1,2,1,-1,-3,0,0,1,1756999391410728693
0,3.386336088,20250904112311411,None,0,229.403076171875,1,0,1,-4,0,0,-4,-3,1756999391410936117
0,3.393300295,20250904112311418,None,0,229.403076171875,1,1,-1,0,-1,-2,0,0,1756999391417762756
0,3.393473625,20250904112311418,None,0,229.403076171875,1,0,-1,-1,-2,0,1,1,1756999391417876958
0,3.40094471,20250904112311425,None,0,229.403076171875,-2,-1,-2,-3,0,0,-1,0,1756999391425361633
0,3.401237726,20250904112311425,None,0,229.403076171875,-2,0,2,-4,-1,-3,-5,-1,1756999391425674438
0,3.409027338,20250904112311433,None,0,228.92713928222656,1,-2,2,0,-2,-1,0,1,1756999391433132171
0,3.409243822,20250904112311433,None,0,228.92713928222656,2,0,0,-3,-3,3,-1,-1,1756999391433369636
0,3.41657114,20250904112311441,None,0,230.1169891357422,1,-2,-4,0,-1,2,-3,-3,1756999391440695047
0,3.416904449,20250904112311441,None,0,230.1169891357422,-1,-2,-3,0,2,-2,-2,-2,1756999391440927743
0,3.431794643,20250904112311456,None,0,230.35494995117188,1,-1,-1,0,2,-3,0,0,1756999391455754756
0,3.432011842,20250904112311456,None,0,230.35494995117188,-1,0,-1,0,0,1,2,0,1756999391455969810
0,3.439174652,20250904112311463,None,0,230.35494995117188,-2,0,-1,-1,2,-1,-1,-3,1756999391463146924
0,3.439397812,20250904112311464,None,0,230.35494995117188,-1,-3,1,1,0,0,3,1,1756999391463361740
0,3.446643352,20250904112311471,None,0,228.6891632080078,-1,-3,-1,-2,-2,2,-1,1,1756999391470598697
0,3.446883678,20250904112311471,None,0,228.6891632080078,-3,5,-2,-2,0,0,0,-3,1756999391470753192
0,3.461323261,20250904112311486,None,0,229.16510009765625,-5,-2,-4,-1,-4,0,0,0,1756999391485345840
0,3.461833715,20250904112311486,None,0,229.16510009765625,2,0,-3,0,0,-4,-2,-1,1756999391485489606
0,3.468785286,20250904112311493,None,0,229.16510009765625,0,-2,-3,0,-4,1,-1,-4,1756999391492801189
0,3.4691944120000002,20250904112311493,None,0,229.64105224609375,0,-1,-2,-1,-3,0,0,-1,1756999391492942571
0,3.476318836,20250904112311501,None,0,229.64105224609375,0,0,-2,-4,-6,-3,-2,0,1756999391500341176
0,3.476586818,20250904112311501,None,0,229.64105224609375,-1,-3,-1,-2,0,0,-3,1,1756999391500476837
0,3.49963808,20250904112311524,None,0,230.1169891357422,-2,-2,1,0,1,1,3,-1,1756999391523544549
0,3.499920845,20250904112311524,None,0,230.1169891357422,-1,2,-1,-2,-2,-2,0,1,1756999391523702859
0,3.500046253,20250904112311524,None,0,230.1169891357422,-1,4,3,-3,-4,-1,-5,-3,1756999391524279117
0,3.5001261230000003,20250904112311524,None,0,230.1169891357422,0,1,0,-1,4,0,1,-1,1756999391524391889
0,3.506422281,20250904112311531,None,0,228.92713928222656,-4,-1,1,-2,-1,-2,-3,1,1756999391530466318
0,3.506647587,20250904112311531,None,0,228.92713928222656,2,0,0,-1,-1,-1,-1,-2,1756999391530611991
0,3.521407366,20250904112311546,None,0,230.59292602539062,-1,0,-1,-1,0,-3,-3,-5,1756999391545428037
0,3.521698713,20250904112311546,None,0,230.59292602539062,-1,1,-1,1,-5,-2,-1,0,1756999391545571565
0,3.528894663,20250904112311553,None,0,228.45120239257812,-2,2,-2,0,-1,2,-2,1,1756999391552863836
0,3.529160738,20250904112311553,None,0,228.45120239257812,0,1,0,-1,-2,-4,1,-3,1756999391552980422
0,3.536324739,20250904112311561,None,0,230.1169891357422,1,2,-2,1,-3,-2,1,-2,1756999391560376882
0,3.536661863,20250904112311561,None,0,230.1169891357422,-4,-3,-1,-1,-1,1,-2,-1,1756999391560511350
0,3.551415443,20250904112311576,None,0,229.87901306152344,-1,-1,-2,0,2,-2,-1,0,1756999391575389623
0,3.551681041,20250904112311576,None,0,229.87901306152344,0,-2,0,0,0,-2,-3,-3,1756999391575546979
0,3.558844805,20250904112311583,None,0,229.87901306152344,-1,3,3,3,1,-1,-4,-1,1756999391582841396
0,3.559015751,20250904112311583,None,0,229.87901306152344,-3,4,2,0,1,-1,-2,-2,1756999391582978248
0,3.566189766,20250904112311590,None,0,229.403076171875,-3,-5,-1,-3,1,-3,-1,-2,1756999391590267419
0,3.56639266,20250904112311591,None,0,229.403076171875,-1,-1,0,2,-1,-1,-1,0,1756999391590391635
0,3.581378937,20250904112311606,None,0,229.87901306152344,-2,-2,-1,0,0,-1,0,-2,1756999391605398178
0,3.581658363,20250904112311606,None,0,229.87901306152344,1,6,0,1,1,1,0,-1,1756999391605545759
0,3.5888412,20250904112311613,None,0,228.92713928222656,0,-1,-3,-2,-2,0,1,0,1756999391612854957
0,3.589056253,20250904112311613,None,0,228.92713928222656,0,0,-4,-2,-2,-3,1,1,1756999391612996339
0,3.595920086,20250904112311620,None,0,228.92713928222656,-4,-3,1,-1,-1,-2,-4,-3,1756999391620391607
0,3.596067905,20250904112311620,None,0,228.92713928222656,3,-3,-2,-1,1,0,1,3,1756999391620530605
0,3.610822916,20250904112311635,None,0,228.6891632080078,-1,1,-2,-3,1,1,-3,1,1756999391635333061
0,3.6109120839999997,20250904112311635,None,0,228.6891632080078,-3,-3,0,1,-3,-1,-2,-1,1756999391635467767
0,3.618328571,20250904112311643,None,0,230.35494995117188,-1,-3,-1,-4,1,1,0,-1,1756999391642816305
0,3.618438244,20250904112311643,None,0,230.35494995117188,-3,-1,-1,1,-2,-1,0,0,1756999391642955541
0,3.625887155,20250904112311650,None,0,228.92713928222656,0,1,-2,-4,-1,-1,-2,-3,1756999391650395870
0,3.6259796619999998,20250904112311650,None,0,228.92713928222656,0,5,0,-2,0,-1,0,3,1756999391650568723
0,3.6410093310000002,20250904112311665,None,0,229.87901306152344,0,0,1,1,-1,-1,4,2,1756999391665441513
0,3.641123533,20250904112311665,None,0,229.87901306152344,-1,-3,-1,-3,0,4,1,0,1756999391665619850
0,3.648348808,20250904112311673,None,0,229.403076171875,-2,-2,-2,1,-1,-1,0,-2,1756999391672836780
0,3.648457289,20250904112311673,None,0,229.403076171875,0,1,-3,-1,-1,0,-3,-2,1756999391672959327
0,3.655837297,20250904112311680,None,0,229.16510009765625,-1,-1,0,-2,0,-5,-3,-1,1756999391680341720
0,3.655936479,20250904112311680,None,0,229.16510009765625,-1,2,-2,-2,0,-3,-4,-1,1756999391680480241
0,3.670845031,20250904112311695,None,0,229.87901306152344,1,-2,2,-2,-1,-1,0,-2,1756999391695345640
0,3.6709611410000003,20250904112311695,None,0,229.87901306152344,-2,-1,0,-1,0,0,-1,0,1756999391695497751
0,3.6782755849999997,20250904112311702,None,0,228.92713928222656,0,-4,-1,-1,-1,-1,-7,2,1756999391702787637
0,3.678373813,20250904112311703,None,0,228.92713928222656,0,-3,-1,-3,0,-2,-1,-2,1756999391702907323
0,3.685973644,20250904112311710,None,0,230.35494995117188,0,1,-1,-1,-3,-2,-3,-3,1756999391710386514
0,3.6860802169999998,20250904112311710,None,0,230.35494995117188,1,-2,-1,-4,0,0,0,0,1756999391710559844
0,3.700894594,20250904112311725,None,0,229.87901306152344,-2,-3,-6,-1,0,3,0,0,1756999391725382566
0,3.7010180950000002,20250904112311725,None,0,229.87901306152344,2,-1,2,1,0,3,4,0,1756999391725527763
0,3.70832324,20250904112311733,None,0,229.87901306152344,1,0,1,-1,-1,0,-3,-1,1756999391732838869
0,3.708415746,20250904112311733,None,0,229.87901306152344,3,-2,-2,0,0,-4,2,0,1756999391732981681
0,3.715793371,20250904112311740,None,0,228.6891632080078,-2,0,0,-3,-4,-4,-4,0,1756999391740313291
0,3.715870619,20250904112311740,None,0,228.6891632080078,1,0,-1,-1,-2,0,-1,-1,1756999391740458488
0,3.730860948,20250904112311755,None,0,229.16510009765625,0,-2,-4,0,1,0,-1,-1,1756999391755355358
0,3.730953693,20250904112311755,None,0,229.16510009765625,-3,-4,-2,-2,-1,0,3,-3,1756999391755513191
0,3.738262892,20250904112311762,None,0,229.16510009765625,-3,-1,-1,-4,-3,0,-1,-1,1756999391762761116
0,3.738361358,20250904112311763,None,0,229.16510009765625,-4,-1,0,-3,1,-1,0,-2,1756999391762907028
0,3.745833874,20250904112311770,None,0,229.403076171875,1,2,-1,0,-1,0,1,3,1756999391770323991
0,3.745928287,20250904112311770,None,0,229.403076171875,-1,-1,0,1,3,-1,1,2,1756999391770489692
0,3.760885477,20250904112311785,None,0,229.16510009765625,-2,-3,-2,2,-2,-2,3,-1,1756999391785377502
0,3.761787891,20250904112311786,None,0,229.16510009765625,2,-1,-1,2,-1,-2,-3,-1,1756999391785749197
0,3.769272566,20250904112311794,None,0,230.35494995117188,-1,2,1,0,-1,-2,3,-2,1756999391793205261
0,3.769578695,20250904112311794,None,0,230.35494995117188,-1,5,1,-3,1,1,0,0,1756999391793428421
0,3.776216984,20250904112311800,None,0,228.6891632080078,-2,-3,-2,2,2,0,-1,-1,1756999391800525903
0,3.776383161,20250904112311801,None,0,228.6891632080078,-3,-5,-2,-1,0,2,-1,-1,1756999391800791501
0,3.79164195,20250904112311816,None,0,230.1169891357422,-3,-4,-1,2,-1,-3,1,-2,1756999391815631866
0,3.791905403,20250904112311816,None,0,228.92713928222656,-2,-2,-3,1,-1,0,-1,2,1756999391815805435
0,3.798796654,20250904112311823,None,0,228.92713928222656,1,0,1,0,1,-1,-5,-3,1756999391822836637
0,3.798993587,20250904112311823,None,0,228.92713928222656,2,0,0,-4,-3,2,0,0,1756999391822997331
0,3.805981636,20250904112311830,None,0,229.87901306152344,-2,1,-2,-2,2,-1,-4,-2,1756999391830292463
0,3.806301832,20250904112311831,None,0,229.87901306152344,0,-1,-2,-1,-1,0,3,-1,1756999391830430030
0,3.821163893,20250904112311845,None,0,229.87901306152344,-3,-2,0,-1,3,-2,1,-2,1756999391845422029
0,3.821444511,20250904112311846,None,0,229.87901306152344,0,-1,-1,-2,-1,-2,0,-1,1756999391845598936
0,3.828712702,20250904112311853,None,0,229.87901306152344,-3,-5,1,-1,0,1,-1,-2,1756999391852891683
0,3.828860998,20250904112311853,None,0,229.87901306152344,2,1,0,-1,-1,1,1,1,1756999391853068828
0,3.836052894,20250904112311860,None,0,229.87901306152344,0,1,-3,-3,-3,-1,-3,1,1756999391860330343
0,3.836271286,20250904112311860,None,0,229.87901306152344,0,1,1,0,-1,0,1,-2,1756999391860466480
0,3.851312876,20250904112311876,None,0,230.1169891357422,-1,-3,-3,-1,1,-3,-2,0,1756999391875330924
0,3.851579427,20250904112311876,None,0,230.1169891357422,-3,-2,-2,0,2,0,0,1,1756999391875468492
0,3.8587760920000003,20250904112311883,None,0,228.92713928222656,0,1,-1,1,-2,2,-2,-1,1756999391882787227
0,3.859006643,20250904112311883,None,0,228.92713928222656,2,-1,-1,1,0,-2,-3,-4,1756999391882900238
0,3.8661262990000003,20250904112311890,None,0,230.35494995117188,0,-3,0,1,-2,-2,-1,-4,1756999391890263080
0,3.86635375,20250904112311891,None,0,230.35494995117188,-3,-3,-2,-2,-3,-1,-1,-4,1756999391890385150
0,3.881301641,20250904112311906,None,0,228.92713928222656,-1,1,-2,-3,-2,-1,-1,0,1756999391905401706
0,3.881572723,20250904112311906,None,0,228.92713928222656,-2,4,2,0,-2,-4,-2,0,1756999391905538082
0,3.888818025,20250904112311913,None,0,229.87901306152344,1,-4,-2,-1,-1,2,2,-2,1756999391912875890
0,3.889055967,20250904112311913,None,0,229.87901306152344,-2,-2,0,1,-2,-2,2,0,1756999391913011550
0,3.896233558,20250904112311920,None,0,229.16510009765625,-1,-1,1,0,-3,0,-3,-1,1756999391920285463
0,3.896449089,20250904112311921,None,0,229.16510009765625,-1,2,0,-3,0,-3,-2,1,1756999391920400142
0,3.911259651,20250904112311936,None,0,229.64105224609375,1,1,2,-1,-2,1,-2,-4,1756999391935307979
0,3.911550998,20250904112311936,None,0,229.64105224609375,-2,2,-1,2,0,-2,-3,1,1756999391935437202
0,3.918768406,20250904112311943,None,0,229.64105224609375,-1,2,0,-1,0,-3,2,-4,1756999391942776679
0,3.919012785,20250904112311943,None,0,229.64105224609375,-2,-5,0,0,0,0,-3,-1,1756999391942913293
0,3.926290512,20250904112311951,None,0,228.92713928222656,0,-4,-3,-3,0,2,0,-1,1756999391950298070
0,3.926517248,20250904112311951,None,0,228.92713928222656,-2,-4,0,0,0,2,-1,1,1756999391950426816
0,3.941574335,20250904112311966,None,0,228.45120239257812,-2,2,-2,3,-4,-3,-1,-2,1756999391965478420
0,3.941817283,20250904112311966,None,0,228.45120239257812,0,1,-2,-1,1,-1,0,-2,1756999391965671539
0,3.948734045,20250904112311973,None,0,230.1169891357422,2,0,0,0,-2,-2,-3,0,1756999391972787380
0,3.948931455,20250904112311973,None,0,230.1169891357422,0,-1,0,1,1,1,-4,3,1756999391972903251
0,3.956160545,20250904112311980,None,0,228.45120239257812,-4,-2,-1,0,-1,-2,-5,-4,1756999391980370521
0,3.956350803,20250904112311981,None,0,228.45120239257812,-2,0,-3,-1,-3,5,5,-2,1756999391980518102
0,3.971449613,20250904112311996,None,0,229.87901306152344,0,0,-1,-1,-2,-1,3,1,1756999391995481967
0,3.97180891,20250904112311996,None,0,229.87901306152344,-2,-1,-4,0,-1,-1,-3,1,1756999391995643615
0,3.978698253,20250904112312003,None,0,228.92713928222656,1,-1,0,1,0,-1,-2,-2,1756999392002753973
0,3.978901624,20250904112312003,None,0,228.92713928222656,-3,-2,0,2,-3,0,-1,-1,1756999392002863407
0,3.986241817,20250904112312010,None,0,229.87901306152344,0,-3,-3,-1,-2,-2,-1,1,1756999392010290861
0,3.9864852429999997,20250904112312011,None,0,229.87901306152344,-1,-5,-5,-3,1,-2,-2,-1,1756999392010413169
0,4.009486675,20250904112312034,None,0,229.403076171875,-3,2,2,1,-1,0,-4,-3,1756999392033537387
0,4.009761095,20250904112312034,None,0,229.403076171875,-3,2,-3,-3,-1,2,-1,0,1756999392033683300
0,4.009979486,20250904112312034,None,0,229.403076171875,-3,-2,-1,1,0,0,-2,0,1756999392034277677
0,4.01013112,20250904112312034,None,0,229.403076171875,1,1,1,-1,-1,0,-2,1,1756999392034387826
0,4.016248941,20250904112312040,None,0,230.1169891357422,0,0,-6,-1,-1,-4,-2,-3,1756999392040292978
0,4.016448498,20250904112312041,None,0,230.1169891357422,-1,-2,-1,1,-2,2,2,-2,1756999392040403127
0,4.031174421,20250904112312055,None,0,228.92713928222656,-1,-2,-3,0,-1,1,1,2,1756999392055374383
0,4.031337976,20250904112312056,None,0,228.92713928222656,-2,-1,-1,-2,-1,-2,-2,0,1756999392055517196
0,4.03837204,20250904112312063,None,0,228.92713928222656,-3,-3,-4,-3,-2,-4,2,-1,1756999392062865495
0,4.038596868,20250904112312063,None,0,228.92713928222656,-2,0,-1,-2,-2,-2,-3,-1,1756999392063062191
0,4.045871019,20250904112312070,None,0,228.21322631835938,-2,1,1,-2,3,-2,-2,-2,1756999392070387125
0,4.045963764,20250904112312070,None,0,228.21322631835938,-2,3,0,-1,-1,-2,1,0,1756999392070523977
0,4.060893297,20250904112312085,None,0,228.6891632080078,-1,-5,-4,-1,0,2,1,-2,1756999392085382223
0,4.061017275,20250904112312085,None,0,228.6891632080078,2,-5,0,-1,-3,-3,0,0,1756999392085533618
0,4.068300009,20250904112312093,None,0,229.403076171875,-2,0,-3,-2,0,1,-1,-2,1756999392092819213
0,4.068393945,20250904112312093,None,0,229.403076171875,1,0,-2,-2,-1,0,-1,0,1756999392092945098
0,4.075794697,20250904112312100,None,0,229.403076171875,3,1,1,-3,-1,1,-2,-1,1756999392100337505
0,4.075895071,20250904112312100,None,0,229.403076171875,-1,5,0,-4,0,-1,-1,3,1756999392100462675
0,4.090948343,20250904112312115,None,0,229.16510009765625,-2,-6,-1,0,0,-3,0,1,1756999392115420818
0,4.091086626,20250904112312115,None,0,229.16510009765625,1,-4,0,2,-3,-1,-3,0,1756999392115570545
0,4.098274708,20250904112312122,None,0,229.87901306152344,1,-1,1,1,0,-1,-1,-2,1756999392122789621
0,4.098356247,20250904112312123,None,0,229.87901306152344,0,2,1,-1,0,-4,-4,-2,1756999392122920989
0,4.105893612,20250904112312130,None,0,228.92713928222656,3,-3,-1,0,-1,2,5,3,1756999392130382299
0,4.106018781,20250904112312130,None,0,228.92713928222656,-3,1,-1,-1,0,-5,-1,-1,1756999392130526542
0,4.120876074,20250904112312145,None,0,230.35494995117188,-2,1,-2,0,-2,-2,0,3,1756999392145385503
0,4.120990753,20250904112312145,None,0,230.35494995117188,-1,0,1,-2,-3,-1,-2,-4,1756999392145537137
0,4.128396749,20250904112312153,None,0,227.02337646484375,1,0,-3,-1,-1,1,-1,-3,1756999392152838468
0,4.128507614,20250904112312153,None,0,227.02337646484375,-1,-1,0,-1,1,4,-4,0,1756999392153005838
0,4.135747194,20250904112312160,None,0,229.64105224609375,1,2,-1,-2,-3,-3,-2,1,1756999392160277843
0,4.135885954,20250904112312160,None,0,229.64105224609375,-1,-3,-1,1,0,1,3,0,1756999392160404443
0,4.150934458,20250904112312175,None,0,230.1169891357422,-2,0,-1,0,-3,-3,-4,-3,1756999392175335884
0,4.151122331,20250904112312175,None,0,230.1169891357422,-3,-6,-1,-2,1,1,-2,-2,1756999392175481796
0,4.1584846970000005,20250904112312183,None,0,230.1169891357422,-1,-4,2,4,-2,1,0,0,1756999392182924985
0,4.158630132,20250904112312183,None,0,230.1169891357422,1,1,0,1,0,-1,-1,-1,1756999392183103084
0,4.173396349,20250904112312198,None,0,229.403076171875,-3,-3,-1,1,0,-4,-3,1,1756999392197861909
0,4.173514366,20250904112312198,None,0,229.403076171875,-3,-1,0,0,-2,-4,-1,-1,1756999392198036670
0,4.181153059,20250904112312205,None,0,229.403076171875,-2,-1,0,-3,-1,1,-1,-2,1756999392205510616
0,4.181337833,20250904112312206,None,0,229.403076171875,0,-1,0,0,-2,1,-4,-4,1756999392205687046
0,4.188309192,20250904112312213,None,0,228.92713928222656,1,3,-3,-2,-1,-1,4,-1,1756999392212775468
0,4.188440323,20250904112312213,None,0,228.92713928222656,-1,3,0,0,0,-3,-3,-2,1756999392212902545
0,4.203342199,20250904112312228,None,0,230.1169891357422,1,-7,2,2,-5,0,0,2,1756999392227849483
0,4.20349741,20250904112312228,None,0,230.1169891357422,-3,-3,-3,-3,-3,-1,0,1,1756999392227986574
0,4.211004495,20250904112312235,None,0,228.6891632080078,-2,0,-3,0,1,-1,-1,-4,1756999392235363483
0,4.211189508,20250904112312235,None,0,228.6891632080078,-2,-1,-2,0,-3,-3,-1,-1,1756999392235546827
0,4.218466282,20250904112312243,None,0,229.64105224609375,-3,1,0,-1,-1,-3,-3,0,1756999392242899179
0,4.218631267,20250904112312243,None,0,229.64105224609375,-1,-3,1,-1,-1,1,-3,-1,1756999392243047237
0,4.233800411,20250904112312258,None,0,228.6891632080078,0,1,-2,-1,-2,-2,0,0,1756999392258270978
0,4.233953237,20250904112312258,None,0,228.6891632080078,-2,-1,-1,-3,1,0,4,-1,1756999392258408308
0,4.240888834,20250904112312265,None,0,229.87901306152344,0,-1,1,0,-3,2,-1,0,1756999392265345335
0,4.241015672,20250904112312265,None,0,229.87901306152344,-3,0,-3,0,2,0,0,-2,1756999392265495061
0,4.248301029,20250904112312273,None,0,229.16510009765625,0,-1,-2,-2,-2,-2,-3,-3,1756999392272765636
0,4.248546839,20250904112312273,None,0,229.16510009765625,-2,-1,-2,-2,1,-4,0,1,1756999392272888660
0,4.263364792,20250904112312288,None,0,229.87901306152344,-1,-3,-4,-2,-3,2,1,-2,1756999392287824869
0,4.26350069,20250904112312288,None,0,229.87901306152344,-1,-1,-3,-3,-2,0,-2,-4,1756999392287958860
0,4.270831346,20250904112312295,None,0,229.87901306152344,0,2,-2,-1,-3,-2,2,-5,1756999392295351982
0,4.270943641,20250904112312295,None,0,229.87901306152344,-2,0,1,-3,-1,-2,0,0,1756999392295476675
0,4.278271675,20250904112312302,None,0,228.6891632080078,-2,-2,-1,-1,1,-3,-4,-2,1756999392302788496
0,4.278380394,20250904112312303,None,0,228.6891632080078,-1,-3,-4,-3,0,-2,-2,0,1756999392302921772
0,4.29334116,20250904112312318,None,0,228.92713928222656,1,1,-3,2,-4,1,5,4,1756999392317795038
0,4.29351592,20250904112312318,None,0,228.92713928222656,-1,2,0,0,-2,3,-1,-2,1756999392317951202
0,4.300857305,20250904112312325,None,0,230.35494995117188,-3,0,-1,-3,-2,-2,2,1,1756999392325282335
0,4.301106691,20250904112312325,None,0,230.35494995117188,0,-4,-2,0,1,1,1,0,1756999392325412750
0,4.308315515,20250904112312333,None,0,230.35494995117188,-1,-2,-3,0,-2,-3,0,-1,1756999392332771062
0,4.308647871,20250904112312333,None,0,228.45120239257812,2,-2,-3,1,-1,1,-1,0,1756999392332961320
0,4.323415994,20250904112312348,None,0,230.35494995117188,1,0,1,-1,-3,-4,0,-1,1756999392347876071
0,4.32357645,20250904112312348,None,0,230.35494995117188,-1,-2,0,1,2,-4,0,-1,1756999392348042011
0,4.330789566,20250904112312355,None,0,228.92713928222656,0,3,1,-1,-2,1,-2,-2,1756999392355344533
0,4.330884933,20250904112312355,None,0,228.92713928222656,-1,3,1,0,-2,1,-1,1,1756999392355473518
0,4.33834672,20250904112312363,None,0,229.64105224609375,0,-10,-2,-2,2,2,1,0,1756999392362817764
0,4.338488579,20250904112312363,None,0,229.64105224609375,-3,-4,-5,-1,0,-2,-2,-2,1756999392362962245
0,4.3533599370000005,20250904112312378,None,0,229.403076171875,-1,-2,0,-2,-3,0,-4,2,1756999392377799987
0,4.353493213,20250904112312378,None,0,229.403076171875,-4,-1,-2,0,-3,0,2,1,1756999392377940893
0,4.360728502,20250904112312385,None,0,228.92713928222656,1,2,0,2,-3,-3,1,-1,1756999392385296821
0,4.360854387,20250904112312385,None,0,228.92713928222656,2,2,-1,3,1,1,1,0,1756999392385411024
0,4.36825633,20250904112312392,None,0,230.1169891357422,-1,0,1,-1,1,-1,-3,-3,1756999392392730712
0,4.368389368,20250904112312393,None,0,230.1169891357422,-1,1,-1,-1,-1,2,1,-3,1756999392392845869
0,4.383347273,20250904112312408,None,0,230.1169891357422,-1,0,2,0,0,2,3,-3,1756999392407807588
0,4.383483648,20250904112312408,None,0,230.1169891357422,-2,-2,-3,-2,-2,-1,-4,-2,1756999392407929658
0,4.390833616,20250904112312415,None,0,228.6891632080078,-3,3,-3,-2,-3,-1,1,2,1756999392415367603
0,4.3909280299999995,20250904112312415,None,0,228.6891632080078,-2,1,-3,-1,-5,0,-1,3,1756999392415501832
0,4.398641586,20250904112312423,None,0,228.6891632080078,-4,0,0,-1,-1,-2,-3,-3,1756999392422966957
0,4.398779869,20250904112312423,None,0,228.6891632080078,-3,-5,-1,0,-2,-1,0,-4,1756999392423141956
0,4.413419246,20250904112312438,None,0,234.63841247558594,0,-1,-2,-1,-5,-1,3,-3,1756999392437828302
0,4.413554191,20250904112312438,None,0,234.63841247558594,4,-2,2,1,-3,-3,-3,1,1756999392437977552
0,4.42169261,20250904112312446,None,0,232.49668884277344,1,0,-2,-2,-1,1,-1,1,1756999392445461988
0,4.42179203,20250904112312446,None,0,232.49668884277344,1,-1,-1,-7,-2,-4,0,-1,1756999392445627689
0,4.428510666,20250904112312453,None,0,231.06886291503906,3,0,1,-1,1,-1,0,-2,1756999392452970027
0,4.42860794,20250904112312453,None,0,231.06886291503906,-3,-4,-1,-4,-3,-2,-1,-3,1756999392453136920
0,4.451859951,20250904112312476,None,0,234.40045166015625,0,-1,-1,-1,-1,-1,-2,-1,1756999392476204395
0,4.452228069,20250904112312476,None,0,234.40045166015625,-2,0,0,-1,-2,-1,0,-5,1756999392476699113
0,4.452931404,20250904112312477,None,0,234.40045166015625,-2,-4,-3,-3,0,-1,1,-3,1756999392477399587
0,4.453151464,20250904112312477,None,0,234.40045166015625,-2,2,0,-1,0,-1,-3,0,1756999392477684020
0,4.458302736,20250904112312483,None,0,230.83090209960938,-2,-3,-2,0,0,2,0,-2,1756999392482806205
0,4.458375931,20250904112312483,None,0,230.83090209960938,-2,-1,-1,-2,-1,-1,-1,1,1756999392482933759
0,4.473721504,20250904112312498,None,0,229.16510009765625,2,5,-1,1,-1,0,-1,0,1756999392498121023
0,4.473963499,20250904112312498,None,0,229.16510009765625,-5,-4,1,0,1,-1,-2,-2,1756999392498302698
0,4.480925321,20250904112312505,None,0,229.16510009765625,1,-5,2,0,0,1,-2,-1,1756999392505249500
0,4.481021404,20250904112312505,None,0,229.16510009765625,-2,-1,-1,1,-1,-1,-2,-2,1756999392505378723
0,4.488315344,20250904112312513,None,0,230.59292602539062,0,-3,-1,-2,5,-3,-1,0,1756999392512749910
0,4.488419056,20250904112312513,None,0,230.59292602539062,-1,-2,2,-2,2,-1,-3,-2,1756999392512858390
0,4.503304004,20250904112312528,None,0,230.1169891357422,0,-1,-2,-1,-3,-2,1,2,1756999392527787685
0,4.503396272,20250904112312528,None,0,230.1169891357422,-1,1,0,-3,-2,0,2,0,1756999392527917385
0,4.510823011,20250904112312535,None,0,230.1169891357422,-1,-4,-3,-1,-2,-3,-4,-1,1756999392535308599
0,4.510905504,20250904112312535,None,0,230.1169891357422,-1,-4,0,0,-1,-2,-2,-2,1756999392535440206
0,4.51827836,20250904112312542,None,0,229.64105224609375,-1,-1,-3,-5,-1,-2,-2,-3,1756999392542799711
0,4.518363714,20250904112312543,None,0,229.64105224609375,-1,0,-1,-1,-3,-2,1,1,1756999392542927503
0,4.533278942,20250904112312558,None,0,230.1169891357422,0,-3,1,-3,-2,2,-4,1,1756999392557727813
0,4.533405542,20250904112312558,None,0,230.1169891357422,-1,-1,-3,-1,-2,-1,-4,-2,1756999392557846069
0,4.540860891,20250904112312565,None,0,228.92713928222656,-1,0,0,2,0,1,2,-1,1756999392565257072
0,4.541000128,20250904112312565,None,0,228.92713928222656,0,1,2,-1,0,1,2,0,1756999392565407514
0,4.548230171,20250904112312572,None,0,230.1169891357422,2,2,0,2,3,-3,1,1,1756999392572720527
0,4.548368931,20250904112312573,None,0,230.1169891357422,-3,0,-2,-2,-1,0,-4,-3,1756999392572836399
0,4.563371658,20250904112312588,None,0,228.6891632080078,1,-3,-2,-2,-1,-2,1,-2,1756999392587806940
0,4.563496589,20250904112312588,None,0,228.6891632080078,-1,-3,0,-1,-3,-1,0,0,1756999392587942600
0,4.570938587,20250904112312595,None,0,230.59292602539062,-2,-3,0,2,1,-2,-4,-1,1756999392595340013
0,4.571108103,20250904112312595,None,0,230.59292602539062,1,1,-2,-1,-3,-2,0,-1,1756999392595508575
0,4.578458309,20250904112312603,None,0,228.92713928222656,-1,1,0,-1,-1,-4,-2,1,1756999392602904319
0,4.578630686,20250904112312603,None,0,228.92713928222656,-2,-4,-1,-3,0,1,0,-2,1756999392603116750
0,4.593435526,20250904112312618,None,0,230.1169891357422,-3,2,0,-1,-2,1,0,-2,1756999392617822408
0,4.593663215,20250904112312618,None,0,230.1169891357422,1,0,0,1,1,-1,1,1,1756999392618031263
0,4.600888252,20250904112312625,None,0,229.403076171875,-2,-5,-1,-3,-3,-2,-4,-3,1756999392625347375
0,4.601197004,20250904112312625,None,0,229.403076171875,0,2,-2,-3,-3,-3,0,0,1756999392625523805
0,4.60828495,20250904112312633,None,0,229.64105224609375,-1,2,-2,-3,-2,-4,1,-4,1756999392632763862
0,4.608395815,20250904112312633,None,0,229.64105224609375,0,-7,-4,-1,1,-3,1,0,1756999392632904291
0,4.623449325,20250904112312648,None,0,228.92713928222656,-2,-3,-4,0,-1,4,1,0,1756999392647842884
0,4.623636245,20250904112312648,None,0,228.92713928222656,-2,-2,-1,-2,-3,1,-3,-2,1756999392648037195
0,4.630801677,20250904112312655,None,0,228.92713928222656,-1,1,0,-4,-1,-1,-1,1,1756999392655322790
0,4.630931377,20250904112312655,None,0,228.92713928222656,-1,2,3,-4,-2,-1,-2,-1,1756999392655456304
0,4.638251304,20250904112312662,None,0,230.35494995117188,2,-1,-2,-6,-3,-1,-1,-2,1756999392662752151
0,4.638343334,20250904112312663,None,0,230.35494995117188,0,-4,0,-1,-3,-1,-2,-2,1756999392662891626
0,4.653618335,20250904112312678,None,0,230.35494995117188,0,-1,0,-2,-4,0,4,0,1756999392677787542
0,4.653808832,20250904112312678,None,0,230.35494995117188,0,0,-2,-1,0,0,3,-5,1756999392677988767
0,4.660823583,20250904112312685,None,0,228.6891632080078,-2,-1,-2,1,0,-3,-1,-3,1756999392685268640
0,4.660998583,20250904112312685,None,0,228.6891632080078,-1,0,-1,-1,-1,-2,-2,0,1756999392685441970
0,4.6690070630000005,20250904112312693,None,0,230.1169891357422,-1,-1,-2,-5,-2,-2,-1,-2,1756999392693476676
0,4.669124365,20250904112312693,None,0,230.1169891357422,1,-3,-2,-3,-1,0,-2,-2,1756999392693621158
0,4.683255434,20250904112312707,None,0,228.92713928222656,2,-2,-1,2,-1,-2,-3,1,1756999392707755327
0,4.683363914,20250904112312708,None,0,228.92713928222656,-1,-1,-1,1,-2,0,2,1,1756999392707880020
0,4.690730333,20250904112312715,None,0,229.64105224609375,-1,0,-1,1,0,-1,0,-1,1756999392715261697
0,4.690840959,20250904112312715,None,0,229.64105224609375,-1,-1,0,-3,-2,-3,-4,-2,1756999392715370655
0,4.69823122,20250904112312722,None,0,229.64105224609375,-3,1,0,-2,1,-2,0,0,1756999392722740650
0,4.698321104,20250904112312723,None,0,229.64105224609375,-3,0,-3,0,-2,2,-2,-1,1756999392722855567
0,4.71327734,20250904112312738,None,0,229.16510009765625,-1,0,-2,-1,-4,-1,-5,-3,1756999392737757444
0,4.713410377,20250904112312738,None,0,229.16510009765625,0,2,-3,0,1,-1,3,-1,1756999392737904071
0,4.720782041,20250904112312745,None,0,230.35494995117188,-1,-5,-1,-2,0,-1,0,0,1756999392745248794
0,4.720876932,20250904112312745,None,0,230.35494995117188,-1,-4,0,0,-4,-1,-3,-1,1756999392745371103
0,4.7359027860000005,20250904112312760,None,0,230.59292602539062,0,2,0,1,-3,0,-3,-2,1756999392760333538
0,4.736021518,20250904112312760,None,0,230.59292602539062,-1,2,-2,1,-1,-2,2,0,1756999392760466575
0,4.743261099,20250904112312767,None,0,229.16510009765625,0,2,-4,-1,-4,-3,-4,-4,1756999392767783403
0,4.743339777,20250904112312768,None,0,229.16510009765625,1,2,-1,-3,-2,0,1,0,1756999392767923593
0,4.750734329,20250904112312775,None,0,229.16510009765625,-2,-5,0,1,0,0,-4,2,1756999392775276899
0,4.750833988,20250904112312775,None,0,229.16510009765625,-1,-1,-5,1,-1,0,0,-1,1756999392775382518
0,4.758229732,20250904112312782,None,0,230.59292602539062,-3,2,0,-1,1,-2,-4,-3,1756999392782758951
0,4.7582991119999996,20250904112312783,None,0,230.59292602539062,-1,-1,-4,-3,-4,-2,0,-1,1756999392782863140
0,4.773283481,20250904112312798,None,0,229.403076171875,1,-1,-1,-1,0,-3,-2,0,1756999392797766208
0,4.773387909,20250904112312798,None,0,229.403076171875,-1,-2,2,-2,0,0,-3,-3,1756999392797892570
0,4.780591964,20250904112312805,None,0,229.64105224609375,-1,0,-2,-2,-2,1,-1,1,1756999392805168151
0,4.780642271,20250904112312805,None,0,229.64105224609375,1,2,-3,1,1,0,-1,-1,1756999392805255651
0,4.788030386,20250904112312812,None,0,228.92713928222656,1,-2,-3,-5,-1,1,0,-3,1756999392812586069
0,4.78806901,20250904112312812,None,0,228.92713928222656,-4,-4,0,0,2,-1,-3,1,1756999392812663793
0,4.803318977,20250904112312828,None,0,230.35494995117188,-5,-3,1,1,0,-1,-3,0,1756999392827764511
0,4.803444147,20250904112312828,None,0,230.35494995117188,1,-3,-2,-1,-1,3,0,1,1756999392827885150
0,4.810770035,20250904112312835,None,0,228.6891632080078,-2,0,-1,-2,-3,-1,2,-4,1756999392835268020
0,4.810874462,20250904112312835,None,0,228.6891632080078,0,-1,2,2,2,-4,-1,1,1756999392835408210
0,4.818267345,20250904112312842,None,0,230.35494995117188,1,2,-1,-1,1,-1,0,-3,1756999392842767715
0,4.818362713,20250904112312843,None,0,230.35494995117188,-2,-5,-3,1,0,-4,-1,-2,1756999392842881202
0,4.8333199019999995,20250904112312858,None,0,230.1169891357422,-1,-1,-2,-5,-4,3,2,-1,1756999392857777357
0,4.833704471,20250904112312858,None,0,230.1169891357422,0,0,1,-2,0,2,-2,1,1756999392858067750
0,4.848909378,20250904112312873,None,0,228.92713928222656,0,0,-3,-2,-3,-2,0,-1,1756999392873371362
0,4.849028587,20250904112312873,None,0,228.92713928222656,-2,0,1,-1,-1,-4,-1,-1,1756999392873498678
0,4.849565983,20250904112312874,None,0,228.92713928222656,-3,-1,-2,0,-1,-4,-3,0,1756999392874117851
0,4.849618912,20250904112312874,None,0,228.92713928222656,1,0,-3,-3,-4,1,0,-3,1756999392874201536
0,4.863212108,20250904112312887,None,0,229.64105224609375,2,-1,-1,1,0,3,-1,-1,1756999392887698173
0,4.863321781,20250904112312888,None,0,229.64105224609375,-1,-2,-2,-1,-1,-2,-1,-1,1756999392887814283
0,4.870791912,20250904112312895,None,0,229.403076171875,-3,1,0,-4,0,-3,1,-2,1756999392895279169
0,4.870901584,20250904112312895,None,0,229.403076171875,0,0,-2,0,-4,0,-2,0,1756999392895429134
0,4.878424644,20250904112312903,None,0,229.403076171875,-1,0,-1,-4,-1,-1,-2,1,1756999392902804374
0,4.878693342,20250904112312903,None,0,229.403076171875,-2,-1,-1,0,0,-2,0,-1,1756999392902939081
0,4.893363476,20250904112312918,None,0,228.6891632080078,0,1,-2,-3,0,-2,-3,1,1756999392917816638
0,4.893558979,20250904112312918,None,0,228.6891632080078,0,2,0,-2,1,-2,-2,-2,1756999392917952060
0,4.9008455269999995,20250904112312925,None,0,230.35494995117188,-1,-8,-3,0,-2,-4,1,-1,1756999392925341367
0,4.900961637,20250904112312925,None,0,230.35494995117188,-1,-4,-1,0,-2,-2,-4,1,1756999392925467491
0,4.908251524,20250904112312932,None,0,228.45120239257812,-1,1,0,-1,0,-1,1,-3,1756999392932760477
0,4.90834856,20250904112312933,None,0,228.45120239257812,0,-3,0,-3,-3,-1,-1,1,1756999392932885169
0,4.923294306,20250904112312948,None,0,230.1169891357422,0,-1,-2,-1,1,0,0,-4,1756999392947768688
0,4.923442125,20250904112312948,None,0,230.1169891357422,3,0,1,2,1,-2,-1,-3,1756999392947905778
0,4.930736542,20250904112312955,None,0,228.92713928222656,1,4,2,1,0,-3,0,-1,1756999392955264091
0,4.930819273,20250904112312955,None,0,228.92713928222656,-4,-5,-1,-4,-2,-2,2,-3,1756999392955396175
0,4.938337087,20250904112312963,None,0,230.1169891357422,0,3,-1,-1,-1,-5,-2,1,1756999392962783813
0,4.938448667,20250904112312963,None,0,230.1169891357422,-4,-3,1,1,1,0,1,-1,1756999392962942838
0,4.953480005,20250904112312978,None,0,229.403076171875,0,0,1,-1,-2,-3,0,1,1756999392977830171
0,4.953710317,20250904112312978,None,0,229.403076171875,0,1,3,0,-1,0,0,2,1756999392977975130
0,4.960862875,20250904112312985,None,0,229.403076171875,-1,-1,1,2,-1,0,-4,-3,1756999392985354423
0,4.960990667,20250904112312985,None,0,229.403076171875,-1,-5,-4,-5,-1,-3,-1,-1,1756999392985479116
0,4.968331098,20250904112312993,None,0,229.87901306152344,-1,-1,3,1,-3,0,0,-1,1756999392992796659
0,4.968488216,20250904112312993,None,0,229.87901306152344,-1,1,1,-1,-1,1,-1,-2,1756999392992933273
0,4.983263254,20250904112313007,None,0,230.35494995117188,-4,-2,-4,0,1,0,-2,-1,1756999393007740974
0,4.983405351,20250904112313008,None,0,230.35494995117188,0,-2,-3,-4,-3,-3,0,0,1756999393007870674
0,4.990792274,20250904112313015,None,0,228.92713928222656,1,0,0,1,0,2,-1,-1,1756999393015289783
0,4.990921974,20250904112313015,None,0,228.92713928222656,-3,1,-1,-2,-3,-1,-2,-4,1756999393015409231
0,5.005789041,20250904112313030,None,0,230.1169891357422,-1,2,-3,0,-3,-2,4,-3,1756999393030270576
0,5.005899906,20250904112313030,None,0,230.1169891357422,0,1,0,-2,-2,-2,1,-3,1756999393030413150
0,5.013290405,20250904112313038,None,0,228.6891632080078,0,1,-2,0,2,-4,-2,-2,1756999393037791013
0,5.013394594,20250904112313038,None,0,228.6891632080078,2,-2,-1,-4,-1,-2,0,-2,1756999393037925720
0,5.020680189,20250904112313045,None,0,230.1169891357422,2,-3,-2,-2,0,4,-3,0,1756999393045179367
0,5.020755529,20250904112313045,None,0,230.1169891357422,1,0,0,-3,-1,-2,-2,-1,1756999393045367717
0,5.028165579,20250904112313052,None,0,229.403076171875,-2,2,-2,-1,-1,0,1,2,1756999393052700519
0,5.028238058,20250904112313052,None,0,229.403076171875,-2,-7,1,-1,2,-1,-2,-3,1756999393052827596
0,5.043413877,20250904112313068,None,0,229.64105224609375,-1,-1,0,-4,-1,0,1,1,1756999393067830801
0,5.04355216,20250904112313068,None,0,229.64105224609375,-1,4,1,-4,-1,0,0,-2,1756999393068013429
0,5.050827503,20250904112313075,None,0,229.87901306152344,0,-6,-2,1,-4,0,0,-1,1756999393075274705
0,5.050969839,20250904112313075,None,0,229.87901306152344,-2,-5,-1,-2,-1,-4,-3,-2,1756999393075448513
0,5.065779447,20250904112313090,None,0,230.35494995117188,-2,1,-3,0,0,0,-1,-1,1756999393090285539
0,5.065890789,20250904112313090,None,0,230.35494995117188,2,3,1,3,1,2,2,2,1756999393090415716
0,5.073283434,20250904112313098,None,0,230.35494995117188,1,0,2,-1,0,-1,0,-1,1756999393097762346
0,5.073417902,20250904112313098,None,0,230.35494995117188,0,-3,-5,-1,2,-1,-3,-2,1756999393097878217
0,5.08071804,20250904112313105,None,0,228.6891632080078,-1,-2,1,-1,-1,2,-1,0,1756999393105275869
0,5.080840111,20250904112313105,None,0,228.6891632080078,-2,-3,-1,-4,-3,-4,-2,-1,1756999393105386734
0,5.088212728,20250904112313112,None,0,230.1169891357422,0,2,-1,0,0,2,0,1,1756999393112726449
0,5.088318109,20250904112313113,None,0,230.1169891357422,0,-1,-1,-4,0,-1,-2,-4,1756999393112850427
0,5.103559494,20250904112313128,None,0,230.35494995117188,-1,0,0,-2,-2,2,4,0,1756999393127795219
0,5.10383892,20250904112313128,None,0,230.35494995117188,-1,0,-3,0,-1,-3,2,0,1756999393127990007
0,5.110672235,20250904112313135,None,0,230.35494995117188,-2,-4,-1,1,-5,-1,2,-1,1756999393135189533
0,5.110860824,20250904112313135,None,0,229.16510009765625,-1,-2,-1,2,1,1,-2,-1,1756999393135378599
0,5.125953436,20250904112313150,None,0,229.64105224609375,-2,0,-1,2,-1,1,-3,0,1756999393150398015
0,5.126153946,20250904112313150,None,0,229.64105224609375,1,-2,2,2,-1,2,-1,-2,1756999393150621891
0,5.133307934,20250904112313158,None,0,229.87901306152344,-3,-1,-1,1,0,1,2,1,1756999393157793998
0,5.133411407,20250904112313158,None,0,229.87901306152344,-1,0,0,0,2,-3,-5,1,1756999393157937049
0,5.140814543,20250904112313165,None,0,229.16510009765625,0,0,-1,0,0,1,4,3,1756999393165323019
0,5.1409204,20250904112313165,None,0,229.16510009765625,2,5,2,-1,-1,-1,0,-1,1756999393165452957
0,5.155750513,20250904112313180,None,0,229.87901306152344,1,-3,-2,0,0,-2,-4,-1,1756999393180289268
0,5.155842542,20250904112313180,None,0,229.87901306152344,-3,-2,-2,-1,-2,0,-2,1,1756999393180421590
0,5.163441658,20250904112313188,None,0,228.45120239257812,-1,3,1,1,4,-4,3,0,1756999393187772512
0,5.163766622,20250904112313188,None,0,228.45120239257812,-2,-2,0,-4,-3,-6,0,-1,1756999393187917470
0,5.170916557,20250904112313195,None,0,230.35494995117188,0,1,1,-3,-1,-2,-4,0,1756999393195278644
0,5.171096802,20250904112313195,None,0,230.35494995117188,1,-1,-2,-1,0,-1,-2,-2,1756999393195399284
0,5.1857321259999996,20250904112313210,None,0,230.35494995117188,1,-3,-1,-3,-4,0,1,2,1756999393210256576
0,5.185806751,20250904112313210,None,0,230.35494995117188,0,-1,2,2,-1,0,-4,-1,1756999393210373640
0,5.193702936,20250904112313218,None,0,229.403076171875,-3,0,-1,-4,-4,0,-1,1,1756999393217807531
0,5.193882465,20250904112313218,None,0,229.403076171875,-1,-6,-1,-4,-1,1,-1,0,1756999393217952966
0,5.201157093,20250904112313225,None,0,229.403076171875,0,0,-2,1,0,-2,-2,-2,1756999393225345134
0,5.20133686,20250904112313226,None,0,229.403076171875,-4,-1,-1,0,0,-4,-3,-1,1756999393225508451
0,5.216085434,20250904112313240,None,0,229.87901306152344,-1,2,1,-3,-2,4,1,-1,1756999393240275621
0,5.21627593,20250904112313241,None,0,229.87901306152344,0,-1,0,3,-5,-2,0,-1,1756999393240440845
0,5.223659754,20250904112313248,None,0,228.92713928222656,-1,-2,0,-5,-2,-1,-2,-3,1756999393247970104
0,5.223829746,20250904112313248,None,0,228.92713928222656,1,2,-1,3,-4,0,0,4,1756999393248176336
0,5.231394768,20250904112313256,None,0,225.83352661132812,-2,-3,-4,-1,-3,-4,-3,-2,1756999393255605220
0,5.231602192,20250904112313256,None,0,225.83352661132812,0,0,-2,1,-2,-2,-2,-2,1756999393255770683
0,5.246187687,20250904112313270,None,0,226.785400390625,-2,1,2,0,-1,0,-1,-2,1756999393270385265
0,5.246396065,20250904112313271,None,0,226.785400390625,0,-2,1,-2,-2,0,-1,1,1756999393270532369
0,5.2534976,20250904112313278,None,0,229.16510009765625,-1,-2,-3,0,-1,0,-4,0,1756999393277749538
0,5.253716707,20250904112313278,None,0,229.16510009765625,0,2,-1,-2,-1,-2,-1,1,1756999393277873754
0,5.261046648,20250904112313285,None,0,227.97525024414062,-3,-1,-1,2,3,-1,-1,-1,1756999393285283088
0,5.261228561,20250904112313285,None,0,227.97525024414062,0,-6,-1,0,0,0,-2,-1,1756999393285368204
0,5.276081323,20250904112313300,None,0,228.6891632080078,-1,1,1,-3,-4,-5,1,-1,1756999393300306797
0,5.276268244,20250904112313300,None,0,228.6891632080078,-1,1,-2,0,-1,0,-1,-3,1756999393300444841
0,5.283624649,20250904112313308,None,0,228.6891632080078,-1,1,-3,-2,1,0,-2,1,1756999393307800292
0,5.283982992,20250904112313308,None,0,228.6891632080078,3,1,-1,-1,2,-1,-2,0,1756999393307952880
0,5.290961265,20250904112313315,None,0,229.87901306152344,1,0,0,-2,0,0,2,0,1756999393315208673
0,5.291142225,20250904112313315,None,0,229.87901306152344,-4,-1,-1,-1,1,-1,2,-3,1756999393315343141
0,5.306156397,20250904112313330,None,0,229.16510009765625,0,1,-2,-1,-1,-5,-5,-3,1756999393330363035
0,5.30635786,20250904112313331,None,0,229.16510009765625,-2,1,1,0,-1,-1,-2,2,1756999393330522060
0,5.313705444,20250904112313338,None,0,229.87901306152344,-1,1,-1,0,1,2,-3,-3,1756999393337890386
0,5.31388855,20250904112313338,None,0,229.87901306152344,-3,-3,-2,-4,0,-3,-3,1,1756999393338027715
0,5.320957422,20250904112313345,None,0,229.87901306152344,0,0,0,1,1,-2,0,-1,1756999393345405101
0,5.321151495,20250904112313345,None,0,229.87901306152344,2,3,1,4,-1,1,2,0,1756999393345562696
0,5.335978746,20250904112313360,None,0,230.35494995117188,2,-2,-3,-3,-1,0,3,-2,1756999393360265970
0,5.336128473,20250904112313360,None,0,230.35494995117188,-1,-1,1,-1,0,0,-2,-3,1756999393360425472
0,5.343508959,20250904112313368,None,0,228.45120239257812,-2,2,2,1,-3,-2,1,2,1756999393367756128
0,5.343755722,20250904112313368,None,0,228.45120239257812,-2,-1,0,-3,1,-3,-2,0,1756999393367888212
0,5.350776434,20250904112313375,None,0,230.35494995117188,0,0,-1,-2,1,0,1,0,1756999393375250339
0,5.350934028,20250904112313375,None,0,230.35494995117188,-2,-3,-5,-1,-4,1,1,0,1756999393375392198
0,5.365842342,20250904112313390,None,0,229.16510009765625,0,1,-1,2,1,-5,-1,0,1756999393390327453
0,5.365950823,20250904112313390,None,0,229.16510009765625,-4,3,3,-5,-2,-3,0,-1,1756999393390475988
0,5.373272419,20250904112313397,None,0,229.87901306152344,1,0,1,-1,0,1,-4,-1,1756999393397779703
0,5.37339735,20250904112313398,None,0,229.87901306152344,1,-1,4,0,-2,-3,1,1,1756999393397905826
0,5.38074708,20250904112313405,None,0,229.64105224609375,-1,2,0,2,1,0,-4,-3,1756999393405280590
0,5.380857229,20250904112313405,None,0,229.64105224609375,-2,-5,-4,-2,-1,0,-1,1,1756999393405404329
0,5.395802259,20250904112313420,None,0,229.64105224609375,-1,-4,-1,-1,-1,-2,0,1,1756999393420283555
0,5.395964622,20250904112313420,None,0,229.64105224609375,0,-3,-2,0,1,0,-3,0,1756999393420475482
0,5.40310955,20250904112313427,None,0,229.87901306152344,-1,0,1,-1,-1,0,-2,-1,1756999393427667856
0,5.403171777,20250904112313427,None,0,229.87901306152344,-2,1,-1,1,1,1,-3,1,1756999393427781343
0,5.4109487529999996,20250904112313435,None,0,228.92713928222656,-1,-1,-3,-1,-1,1,0,-1,1756999393435216665
0,5.411124229,20250904112313435,None,0,228.92713928222656,-1,2,-1,0,-2,-2,1,1,1756999393435336112
0,5.425803661,20250904112313450,None,0,228.92713928222656,-3,1,-1,3,-1,-1,0,-1,1756999393450252532
0,5.425937652,20250904112313450,None,0,228.92713928222656,1,-3,-1,-2,-2,-1,2,-2,1756999393450368165
0,5.433232069,20250904112313457,None,0,230.59292602539062,-2,-4,2,-2,0,-5,-1,1,1756999393457737445
0,5.433370828,20250904112313458,None,0,230.59292602539062,1,-2,-1,-2,-1,-3,-2,-1,1756999393457855701
0,5.440832853,20250904112313465,None,0,230.59292602539062,0,-1,-2,0,1,-1,-1,1,1756999393465332508
0,5.44091177,20250904112313465,None,0,230.59292602539062,0,-1,1,0,2,0,5,-2,1756999393465505123
0,5.456019401,20250904112313480,None,0,230.1169891357422,-1,0,-2,-1,-3,-1,1,-2,1756999393480265617
0,5.456204176,20250904112313480,None,0,230.1169891357422,-2,-1,-3,-3,-5,-5,-5,-5,1756999393480398654
0,5.463471651,20250904112313488,None,0,229.403076171875,2,0,2,-1,-2,1,2,0,1756999393487712621
0,5.463691711,20250904112313488,None,0,229.403076171875,0,1,-4,-3,2,1,3,1,1756999393487837553
0,5.471005678,20250904112313495,None,0,229.403076171875,0,0,0,1,-2,-2,-3,-2,1756999393495258092
0,5.471218824,20250904112313495,None,0,229.403076171875,-3,-4,-1,0,-4,-1,1,1,1756999393495376825
0,5.48615694,20250904112313510,None,0,229.64105224609375,-2,-2,1,2,0,-1,-5,-2,1756999393510464429
0,5.48632741,20250904112313511,None,0,229.64105224609375,-2,1,-2,-3,1,-3,-2,2,1756999393510585784
0,5.49350357,20250904112313518,None,0,228.92713928222656,-5,-3,0,-3,-1,-2,0,0,1756999393517736911
0,5.49720335,20250904112313521,None,0,228.92713928222656,-1,3,-1,-2,-1,-2,-1,-2,1756999393517891407
0,5.500776052,20250904112313525,None,0,230.35494995117188,-4,-8,-2,-3,-1,1,0,-2,1756999393525193929
0,5.500888347,20250904112313525,None,0,230.35494995117188,0,1,-1,-1,-1,-1,-4,2,1756999393525353670
0,5.515660524,20250904112313540,None,0,228.45120239257812,0,4,0,0,0,-2,0,1,1756999393540158987
0,5.515763044,20250904112313540,None,0,228.45120239257812,-1,1,-1,-1,0,-2,1,1,1756999393540258884
0,5.523216009,20250904112313547,None,0,230.59292602539062,1,2,-1,0,0,-3,-1,-1,1756999393547703027
0,5.523313284,20250904112313548,None,0,230.59292602539062,-1,-3,-1,0,-2,-1,-1,-1,1756999393547824859
0,5.530899048,20250904112313555,None,0,229.16510009765625,-2,-2,-1,0,-1,-1,-1,-2,1756999393555332422
0,5.531002521,20250904112313555,None,0,229.16510009765625,-3,-4,-1,-2,-3,2,1,0,1756999393555492162
0,5.545859813,20250904112313570,None,0,229.64105224609375,2,2,-2,-4,-4,0,0,-1,1756999393570308685
0,5.545968055,20250904112313570,None,0,229.64105224609375,-1,-2,-2,-3,-1,-1,1,0,1756999393570500373
0,5.553290367,20250904112313578,None,0,229.64105224609375,-3,-2,-1,0,0,-1,2,-4,1756999393577773809
0,5.553512573,20250904112313578,None,0,229.64105224609375,2,0,2,0,-1,-4,-4,-3,1756999393577913045
0,5.561061382,20250904112313585,None,0,229.64105224609375,0,-1,-1,-2,-2,0,-1,-3,1756999393585384368
0,5.561376571,20250904112313586,None,0,229.64105224609375,0,0,1,2,-2,-3,1,-1,1756999393585569858
0,5.575864553,20250904112313600,None,0,229.16510009765625,-3,-4,0,-3,-1,0,1,-1,1756999393600317001
0,5.576012134,20250904112313600,None,0,229.16510009765625,1,-1,-1,-3,-2,-1,-1,-1,1756999393600467681
0,5.583237409,20250904112313607,None,0,230.35494995117188,2,-2,-5,-4,-4,-2,0,-1,1756999393607740640
0,5.583346605,20250904112313608,None,0,230.35494995117188,-3,2,0,-1,0,-1,-1,0,1756999393607872724
0,5.59075284,20250904112313615,None,0,230.35494995117188,0,0,-3,-6,-3,3,-1,0,1756999393615273952
0,5.590875864,20250904112313615,None,0,230.35494995117188,1,0,0,-2,-2,-2,-1,-2,1756999393615392923
0,5.614185095,20250904112313638,None,0,228.6891632080078,3,4,-1,0,-4,-2,-1,-1,1756999393638604402
0,5.61433649,20250904112313639,None,0,228.6891632080078,-1,-5,0,-1,-2,-3,-1,0,1756999393638754606
0,5.614703178,20250904112313639,None,0,228.6891632080078,0,-1,-1,-1,-3,0,0,1,1756999393639183759
0,5.614806652,20250904112313639,None,0,228.6891632080078,-1,2,-2,-1,1,1,0,0,1756999393639256000
0,5.620736122,20250904112313645,None,0,229.87901306152344,-4,-4,-3,-6,-3,-4,0,-3,1756999393645269393
0,5.6208326809999996,20250904112313645,None,0,229.87901306152344,-3,-2,-4,0,-2,0,-1,-2,1756999393645404100
0,5.635889292,20250904112313660,None,0,229.87901306152344,0,2,0,1,1,-1,2,0,1756999393660330057
0,5.636031866,20250904112313660,None,0,229.87901306152344,0,1,-2,-1,0,-2,-2,-1,1756999393660501003
0,5.643304348,20250904112313668,None,0,229.87901306152344,-5,-1,-1,-4,-1,1,0,-3,1756999393667757511
0,5.643442631,20250904112313668,None,0,229.87901306152344,-3,-2,2,0,-1,0,-3,-2,1756999393667913436
0,5.6507842539999995,20250904112313675,None,0,229.87901306152344,-1,-2,2,-1,-1,1,-2,-1,1756999393675297737
0,5.65087986,20250904112313675,None,0,229.87901306152344,0,1,-2,2,-3,0,1,0,1756999393675442218
0,5.665831089,20250904112313690,None,0,230.1169891357422,-1,-5,-1,2,-3,-1,-4,0,1756999393690318822
0,5.665945768,20250904112313690,None,0,230.1169891357422,0,-3,0,-2,-2,-1,-3,-1,1756999393690496444
0,5.673318386,20250904112313698,None,0,228.45120239257812,-1,2,2,-1,-3,-1,-5,-1,1756999393697786331
0,5.673454761,20250904112313698,None,0,228.45120239257812,3,1,-2,0,1,-1,-1,0,1756999393697931289
0,5.680811167,20250904112313705,None,0,228.45120239257812,2,0,1,3,0,1,5,0,1756999393705329656
0,5.680946588,20250904112313705,None,0,230.35494995117188,-2,2,-1,0,1,-1,0,1,1756999393705481767
0,5.695857286,20250904112313720,None,0,228.6891632080078,-2,-1,-2,1,0,-1,-1,-1,1756999393720302343
0,5.695985079,20250904112313720,None,0,228.6891632080078,-1,-3,-2,-1,-1,-1,0,-4,1756999393720463514
0,5.703290462,20250904112313728,None,0,230.1169891357422,1,3,1,0,1,0,-2,-1,1756999393727752923
0,5.703399181,20250904112313728,None,0,230.1169891357422,0,-1,-5,-4,-2,-1,-4,0,1756999393727904081
0,5.710810899,20250904112313735,None,0,229.403076171875,-3,3,-1,0,-1,1,-2,-1,1756999393735323905
0,5.71092534,20250904112313735,None,0,229.403076171875,-1,-6,-2,-2,-2,0,3,-5,1756999393735460519
0,5.725867033,20250904112313750,None,0,229.87901306152344,-2,-2,1,-2,-4,-2,-1,0,1756999393750323772
0,5.725982666,20250904112313750,None,0,229.87901306152344,1,0,2,-1,1,-4,-5,0,1756999393750486850
0,5.733255386,20250904112313757,None,0,229.64105224609375,0,-1,-3,-3,-1,2,-3,-1,1756999393757743597
0,5.733362674,20250904112313758,None,0,229.64105224609375,-3,0,-1,-4,-1,-1,-4,-1,1756999393757878303
0,5.740807295,20250904112313765,None,0,229.403076171875,0,-1,-1,0,3,-4,0,0,1756999393765240669
0,5.740931988,20250904112313765,None,0,229.403076171875,-1,1,-2,0,-1,0,-6,-2,1756999393765378475
0,5.755840778,20250904112313780,None,0,229.87901306152344,-2,-1,-2,2,-1,-3,-3,-3,1756999393780293703
0,5.755996704,20250904112313780,None,0,229.87901306152344,2,1,-2,-1,0,-4,2,-2,1756999393780447244
0,5.763319731,20250904112313788,None,0,228.92713928222656,2,-1,0,-2,-2,-3,-4,1,1756999393787765502
0,5.763472318,20250904112313788,None,0,228.92713928222656,-1,-1,-1,-2,-2,0,-3,-3,1756999393787944078
0,5.77073431,20250904112313795,None,0,230.59292602539062,-3,2,-1,1,-1,1,5,1,1756999393795268058
0,5.770837068,20250904112313795,None,0,230.59292602539062,-1,-5,0,0,0,-2,-1,-1,1756999393795401573
0,5.785920381,20250904112313810,None,0,230.35494995117188,-3,-2,-1,0,0,0,0,-2,1756999393810388803
0,5.786052227,20250904112313810,None,0,230.35494995117188,0,0,-3,-1,-3,0,-2,-1,1756999393810555458
0,5.7932868,20250904112313818,None,0,229.16510009765625,0,0,-3,-1,-4,1,1,0,1756999393817804813
0,5.793414116,20250904112313818,None,0,229.16510009765625,-2,5,-2,0,0,0,2,0,1756999393817950010
0,5.800732136,20250904112313825,None,0,229.16510009765625,-2,1,-2,-3,-2,0,1,0,1756999393825261116
0,5.800833702,20250904112313825,None,0,229.16510009765625,-1,-5,-3,-1,-3,1,1,-3,1756999393825401067
0,5.815859318,20250904112313840,None,0,229.64105224609375,1,-2,-3,-1,1,-4,1,-2,1756999393840272903
0,5.816016674,20250904112313840,None,0,229.64105224609375,-3,1,-2,-3,-3,-1,0,-1,1756999393840451002
0,5.823261022,20250904112313847,None,0,229.403076171875,0,3,2,-1,1,0,0,1,1756999393847731351
0,5.823417663,20250904112313848,None,0,229.403076171875,-1,-2,-1,-3,0,0,3,-1,1756999393847875356
0,5.830739975,20250904112313855,None,0,230.1169891357422,-3,-2,1,0,-3,1,-3,0,1756999393855261802
0,5.830848217,20250904112313855,None,0,230.1169891357422,-1,-1,-4,-2,-1,2,-4,-3,1756999393855399847
0,5.845939398,20250904112313870,None,0,228.92713928222656,0,3,1,1,2,-4,-5,0,1756999393870370864
0,5.846074819,20250904112313870,None,0,228.92713928222656,-2,0,-2,1,0,-2,-2,-4,1756999393870573282
0,5.853297233,20250904112313878,None,0,230.35494995117188,0,-2,0,1,-1,-1,1,-1,1756999393877781867
0,5.853412866,20250904112313878,None,0,230.35494995117188,-1,-1,1,2,0,-3,-2,-1,1756999393877923488
0,5.860630989,20250904112313885,None,0,228.6891632080078,-1,0,-2,-1,1,3,-3,-1,1756999393885163307
0,5.860742092,20250904112313885,None,0,228.6891632080078,-2,-3,-2,-3,-2,-2,-2,-3,1756999393885258197
0,5.875441074,20250904112313900,None,0,230.35494995117188,2,0,-5,-2,-5,-3,3,-3,1756999393900030136
0,5.8754878040000005,20250904112313900,None,0,230.35494995117188,0,0,-2,2,-1,-2,-1,-1,1756999393900112628
0,5.883044243,20250904112313907,None,0,228.92713928222656,0,0,2,-1,2,1,-1,0,1756999393907624006
0,5.883087635,20250904112313907,None,0,228.92713928222656,-1,-1,-3,-2,-3,-1,-3,-3,1756999393907724618
0,5.890695572,20250904112313915,None,0,229.64105224609375,-4,0,1,-3,1,-1,2,0,1756999393915201187
0,5.8907842630000005,20250904112313915,None,0,229.64105224609375,-1,-2,-2,1,-1,-3,-1,1,1756999393915333271
0,5.905834675,20250904112313930,None,0,229.403076171875,-1,3,1,0,-2,2,-2,-2,1756999393930297374
0,5.905946254,20250904112313930,None,0,229.403076171875,0,2,-5,0,1,2,1,0,1756999393930461645
0,5.913285732,20250904112313938,None,0,229.403076171875,1,1,0,0,1,-1,-2,1,1756999393937747955
0,5.913376093,20250904112313938,None,0,229.403076171875,-2,-4,1,-1,3,-1,-3,-1,1756999393937876701
0,5.920741558,20250904112313945,None,0,229.87901306152344,0,0,-1,1,-4,1,-3,-1,1756999393945252180
0,5.920827389,20250904112313945,None,0,229.87901306152344,2,0,1,0,1,2,1,0,1756999393945383787
0,5.935598612,20250904112313960,None,0,230.35494995117188,-1,-1,-1,-2,-2,0,-1,0,1756999393960122108
0,5.935645818,20250904112313960,None,0,230.35494995117188,-3,-1,-1,0,-2,-3,-1,1,1756999393960218906
0,5.943066597,20250904112313967,None,0,228.6891632080078,4,2,-3,-2,0,1,-3,-1,1756999393967626333
0,5.943128347,20250904112313967,None,0,228.6891632080078,-3,-3,-1,1,-2,0,-2,1,1756999393967741250
0,5.9507057660000005,20250904112313975,None,0,228.6891632080078,-4,-7,0,0,0,0,-2,3,1756999393975202322
0,5.950793028,20250904112313975,None,0,228.6891632080078,-2,1,2,1,-1,3,0,2,1756999393975330352
0,5.966066599,20250904112313990,None,0,228.92713928222656,0,-1,0,-3,0,2,-2,0,1756999393990478754
0,5.966165781,20250904112313990,None,0,228.92713928222656,0,2,0,-2,0,-1,-2,-3,1756999393990706920
0,5.973396301,20250904112313998,None,0,230.1169891357422,-2,-2,-1,1,-2,0,-4,-1,1756999393997847080
0,5.973585605,20250904112313998,None,0,230.1169891357422,2,-4,0,-1,2,0,2,-3,1756999393998085021
0,5.980894327,20250904112314005,None,0,229.403076171875,-3,-3,-1,0,-2,-2,-1,-1,1756999394005412817
0,5.980992794,20250904112314005,None,0,229.403076171875,-3,-2,-2,1,0,0,-2,0,1756999394005589485
0,5.996033907,20250904112314020,None,0,229.403076171875,3,0,1,3,0,2,-1,0,1756999394020472288
0,5.996150732,20250904112314020,None,0,229.403076171875,-2,1,0,-1,0,-1,0,-2,1756999394020675182
0,6.003300905,20250904112314028,None,0,230.1169891357422,-2,-1,0,-1,0,-3,-2,-3,1756999394027764081
0,6.003396988,20250904112314028,None,0,230.1169891357422,-1,1,2,-2,-3,-3,-3,-2,1756999394027936935
0,6.010738611,20250904112314035,None,0,229.16510009765625,-1,-2,-1,-3,-3,-1,-2,-2,1756999394035223245
0,6.010823011,20250904112314035,None,0,229.16510009765625,-4,-4,-7,-2,1,-1,-2,0,1756999394035385370
0,6.025788545,20250904112314050,None,0,228.92713928222656,1,2,1,-1,0,0,0,1,1756999394050295352
0,6.025879383,20250904112314050,None,0,228.92713928222656,-1,-1,-4,-1,0,-1,-2,-2,1756999394050417900
0,6.033381223,20250904112314058,None,0,230.59292602539062,1,0,-2,-2,-1,0,1,-1,1756999394057866096
0,6.033467293,20250904112314058,None,0,230.59292602539062,1,5,2,1,0,-2,-3,-2,1756999394058013439
0,6.048295259,20250904112314073,None,0,228.6891632080078,-1,-4,-6,1,-2,-1,1,0,1756999394072772979
0,6.048386574,20250904112314073,None,0,228.6891632080078,0,-2,-2,1,-2,-2,0,1,1756999394072934150
0,6.055779934,20250904112314080,None,0,230.35494995117188,0,-1,0,-1,1,0,3,0,1756999394080302000
0,6.055892229,20250904112314080,None,0,230.35494995117188,3,4,-2,-1,-1,3,-3,0,1756999394080455541
0,6.063253164,20250904112314087,None,0,229.64105224609375,-4,0,-3,-3,-6,0,-4,-2,1756999394087734937
0,6.06335473,20250904112314088,None,0,229.64105224609375,-4,-1,1,0,-3,-4,-1,0,1756999394087879896
0,6.07828784,20250904112314103,None,0,229.87901306152344,0,-2,-3,-4,1,-2,0,1,1756999394102786302
0,6.078374862,20250904112314103,None,0,229.87901306152344,-2,0,0,-5,-3,1,2,2,1756999394102953433
0,6.085779667,20250904112314110,None,0,230.1169891357422,0,4,-1,0,3,-1,-4,2,1756999394110301971
0,6.085887193,20250904112314110,None,0,230.1169891357422,2,-7,-3,2,1,-1,-1,-1,1756999394110437870
0,6.093188762,20250904112314117,None,0,229.403076171875,-1,-5,1,0,2,1,-4,0,1756999394117725849
0,6.093277216,20250904112314117,None,0,229.403076171875,-1,2,0,0,-1,2,3,-1,1756999394117852210
0,6.108250618,20250904112314132,None,0,228.92713928222656,-1,0,-1,-3,0,-2,-2,0,1756999394132710456
0,6.108368873,20250904112314133,None,0,228.92713928222656,2,-1,-3,1,1,-3,-2,0,1756999394132844209
0,6.115712642,20250904112314140,None,0,230.59292602539062,2,-1,2,1,3,-1,1,-2,1756999394140244483
0,6.1158127780000004,20250904112314140,None,0,230.59292602539062,0,0,-2,-1,-1,-4,-2,-2,1756999394140367031
0,6.12313652,20250904112314147,None,0,230.59292602539062,0,-2,0,-1,-3,-2,0,-2,1756999394147694349
0,6.123214006,20250904112314147,None,0,230.59292602539062,-1,-1,-2,0,-3,-3,-1,-1,1756999394147805690
0,6.138219118,20250904112314162,None,0,230.1169891357422,0,1,1,1,1,1,-1,0,1756999394162744045
0,6.138314962,20250904112314163,None,0,230.1169891357422,-2,-2,0,-3,0,-2,-2,-3,1756999394162884950
