gt,time_elapsed,current_time,current_task,motor_position,futek,emg0,emg1,emg2,emg3,emg4,emg5,emg6,emg7,emg_timer_stamp
0,0.035444498,20250904112731514,None,6,230.35494995117188,1,0,-3,-2,-1,-3,-9,-9,1756999651512166500
0,0.035722494,20250904112731514,None,6,230.35494995117188,4,-2,1,1,0,2,6,1,1756999651512255191
0,0.048098087,20250904112731527,None,6,229.87901306152344,-4,0,1,-1,-2,-6,-14,-5,1756999651526799201
0,0.048248053,20250904112731527,None,6,229.87901306152344,-1,0,-1,-3,1,5,11,3,1756999651526923418
0,0.055954933,20250904112731534,None,6,229.87901306152344,0,-1,3,2,0,-1,0,1,1756999651534538984
0,0.05613184,20250904112731535,None,6,229.87901306152344,-3,0,-1,-1,-1,-6,-15,-5,1756999651534711360
0,0.063071489,20250904112731542,None,6,231.3068389892578,-1,1,-2,0,4,-1,6,2,1756999651541795015
0,0.063199759,20250904112731542,None,6,231.3068389892578,0,3,-1,0,0,2,2,0,1756999651541916131
0,0.078104496,20250904112731557,None,6,231.5447998046875,-1,0,-1,-6,-3,-4,-5,-1,1756999651556776285
0,0.078208447,20250904112731557,None,6,231.5447998046875,-3,-1,-1,-1,-1,-1,-5,-3,1756999651556909084
0,0.085492849,20250904112731564,None,6,230.35494995117188,1,-2,-1,0,-3,4,4,4,1756999651564270496
0,0.085584879,20250904112731564,None,6,230.35494995117188,0,0,-2,1,-3,-1,0,-3,1756999651564379930
0,0.093066931,20250904112731572,None,6,230.35494995117188,1,1,1,1,-1,0,-2,1,1756999651571763277
0,0.093139172,20250904112731572,None,6,230.35494995117188,1,1,-2,-1,0,-9,-17,-7,1756999651571882009
0,0.10828948,20250904112731587,None,6,230.35494995117188,0,-1,0,-2,-3,3,3,-1,1756999651586925983
0,0.10848093,20250904112731587,None,6,230.35494995117188,-1,-1,1,1,4,2,7,6,1756999651587100744
0,0.116045714,20250904112731595,None,6,230.59292602539062,-1,-1,-1,2,0,0,-3,-1,1756999651594436168
0,0.116410017,20250904112731595,None,6,230.59292602539062,-2,0,-4,-1,-5,-9,-8,-4,1756999651594596147
0,0.123230219,20250904112731602,None,6,231.06886291503906,-2,1,0,-4,4,1,1,0,1756999651601872444
0,0.123414517,20250904112731602,None,6,231.06886291503906,2,-1,-1,1,-1,-2,-2,-2,1756999651602051019
0,0.138175488,20250904112731617,None,6,230.1169891357422,-1,1,-2,1,-2,0,1,3,1756999651616828680
0,0.138416052,20250904112731617,None,6,230.1169891357422,-3,0,0,2,-1,-1,-1,0,1756999651616968870
0,0.145661593,20250904112731624,None,6,231.06886291503906,-1,0,1,0,-2,-3,-3,1,1756999651624361038
0,0.145853281,20250904112731624,None,6,231.06886291503906,1,-1,-4,-4,-3,-1,-2,1,1756999651624514579
0,0.153030157,20250904112731632,None,6,229.403076171875,-4,-1,0,-2,3,3,1,-4,1756999651631781339
0,0.15313983,20250904112731632,None,6,229.403076171875,0,0,2,0,2,-2,0,0,1756999651631922960
0,0.168164015,20250904112731647,None,6,229.87901306152344,-1,-3,0,-2,-4,-4,-2,-1,1756999651646814346
0,0.168284893,20250904112731647,None,6,229.87901306152344,2,-1,0,-3,0,2,2,-3,1756999651646941423
0,0.175609589,20250904112731654,None,6,229.87901306152344,-2,0,-3,0,0,-8,-13,-3,1756999651654364824
0,0.175745964,20250904112731654,None,6,229.87901306152344,1,-1,-1,-3,0,1,-1,0,1756999651654508829
0,0.183145046,20250904112731662,None,6,231.06886291503906,-3,-4,0,-2,-1,2,-2,-4,1756999651661856174
0,0.18325901,20250904112731662,None,6,231.06886291503906,-4,-2,-2,-2,-3,-4,6,0,1756999651661993026
0,0.198319197,20250904112731677,None,6,230.83090209960938,5,0,-3,-3,1,5,13,6,1756999651676861524
0,0.198569059,20250904112731677,None,6,230.83090209960938,-1,1,-1,1,-2,1,-3,-2,1756999651677010774
0,0.205704689,20250904112731684,None,6,230.83090209960938,-1,-3,2,-3,1,-4,-6,-4,1756999651684379816
0,0.205877781,20250904112731684,None,6,230.83090209960938,0,-4,-1,0,0,-5,-8,-3,1756999651684517145
0,0.213018894,20250904112731692,None,6,230.83090209960938,-1,-3,-2,1,-3,-4,-7,-5,1756999651691776037
0,0.213135719,20250904112731692,None,6,230.83090209960938,0,0,-4,1,-1,-3,-5,-4,1756999651691874504
0,0.228144169,20250904112731707,None,6,231.3068389892578,2,1,-1,-2,1,2,0,0,1756999651706849336
0,0.228286505,20250904112731707,None,6,231.3068389892578,-1,0,-2,-1,-3,-2,-2,1,1756999651706996202
0,0.235707522,20250904112731714,None,6,229.87901306152344,-5,1,-1,-2,-3,1,-2,-5,1756999651714440822
0,0.235818863,20250904112731714,None,6,229.87901306152344,-1,-4,0,-1,0,2,5,1,1756999651714596271
0,0.243089914,20250904112731722,None,6,231.3068389892578,0,3,0,1,-1,-3,-5,0,1756999651721813678
0,0.243191719,20250904112731722,None,6,231.3068389892578,-2,-2,-3,-5,-2,-4,-8,-3,1756999651721937656
0,0.258256674,20250904112731737,None,6,231.3068389892578,-5,-1,2,0,-2,0,1,-1,1756999651736862659
0,0.258405447,20250904112731737,None,6,231.3068389892578,-1,1,-1,3,-2,0,1,1,1756999651737024545
0,0.265627146,20250904112731744,None,6,231.3068389892578,0,0,-2,1,-3,-7,-16,-2,1756999651744349956
0,0.265769482,20250904112731744,None,6,231.3068389892578,-1,3,2,0,1,7,24,5,1756999651744475364
0,0.27315855,20250904112731752,None,6,230.1169891357422,-2,-1,-1,-1,2,1,-3,0,1756999651751860618
0,0.273320913,20250904112731752,None,6,230.1169891357422,-1,0,-1,1,-1,-1,1,-3,1756999651752038955
0,0.288201809,20250904112731767,None,6,230.59292602539062,0,-1,-2,2,0,4,7,2,1756999651766865968
0,0.288364887,20250904112731767,None,6,230.59292602539062,-2,-7,-1,1,-1,-1,-8,-6,1756999651766993761
0,0.295654297,20250904112731774,None,6,230.59292602539062,-1,-3,1,-2,-3,0,-2,-3,1756999651774389505
0,0.295819283,20250904112731774,None,6,230.59292602539062,0,0,-1,0,1,4,10,3,1756999651774515151
0,0.303113699,20250904112731782,None,6,230.59292602539062,-3,-4,-2,-1,-1,-3,-4,-3,1756999651781849622
0,0.303336382,20250904112731782,None,6,230.59292602539062,-2,-3,-3,-2,0,-7,-19,-7,1756999651781964540
0,0.318134785,20250904112731797,None,6,229.87901306152344,1,1,-2,-2,0,3,18,5,1756999651796830415
0,0.318293333,20250904112731797,None,6,229.87901306152344,1,-3,-1,-1,0,0,-2,-2,1756999651796976089
0,0.325632811,20250904112731804,None,6,231.5447998046875,-2,-1,0,-2,-1,-3,-3,-1,1756999651804341077
0,0.325764179,20250904112731804,None,6,231.5447998046875,-3,1,-1,-3,0,-3,-3,-4,1756999651804449558
0,0.333041191,20250904112731812,None,6,229.87901306152344,-1,-2,0,-1,2,4,2,-1,1756999651811794519
0,0.333167553,20250904112731812,None,6,229.87901306152344,-1,-3,3,1,-1,-4,-14,-3,1756999651811910867
0,0.348168612,20250904112731827,None,6,231.5447998046875,-1,3,-3,0,-2,-3,-7,0,1756999651826856613
0,0.348442555,20250904112731827,None,6,231.5447998046875,1,0,3,0,3,1,6,2,1756999651826996564
0,0.355844021,20250904112731834,None,6,230.1169891357422,0,2,0,1,-1,-5,-8,-5,1756999651834356307
0,0.356044293,20250904112731835,None,6,230.1169891357422,2,1,-2,1,1,-5,-1,-1,1756999651834567070
0,0.363442421,20250904112731842,None,6,231.06886291503906,1,2,-2,-2,0,11,21,6,1756999651841895103
0,0.363617897,20250904112731842,None,6,231.06886291503906,-3,-5,-2,-3,-5,-6,-6,-1,1756999651842050313
0,0.378422737,20250904112731857,None,6,230.59292602539062,-2,-4,-3,-3,-3,0,-6,-3,1756999651856875181
0,0.378676415,20250904112731857,None,6,230.59292602539062,1,1,-2,-1,3,0,2,4,1756999651857020616
0,0.385676384,20250904112731864,None,6,230.59292602539062,-1,1,1,0,-3,-13,-23,-9,1756999651864257574
0,0.385821343,20250904112731864,None,6,230.59292602539062,0,-1,1,1,2,8,18,6,1756999651864372491
0,0.393350124,20250904112731872,None,6,231.06886291503906,-5,1,0,2,-2,0,-2,-4,1756999651871815204
0,0.393535853,20250904112731872,None,6,231.06886291503906,-2,-4,-3,-1,-2,-6,-8,-4,1756999651871941328
0,0.408377171,20250904112731887,None,6,231.78277587890625,0,0,-2,1,-1,3,6,-1,1756999651886873483
0,0.40852046,20250904112731887,None,6,231.78277587890625,0,0,1,-3,0,-5,-6,0,1756999651887049674
0,0.415891409,20250904112731894,None,6,231.78277587890625,3,1,0,0,1,2,6,-1,1756999651894395589
0,0.416077614,20250904112731895,None,6,231.78277587890625,1,-1,-3,-3,-4,-2,0,0,1756999651894519805
0,0.430917263,20250904112731909,None,6,231.3068389892578,-1,-3,-1,2,1,0,-3,-3,1756999651909461975
0,0.431131125,20250904112731910,None,6,231.3068389892578,1,1,3,1,0,-6,-9,-2,1756999651909616708
0,0.438169956,20250904112731917,None,6,230.1169891357422,-2,0,0,-1,-2,-3,-1,-3,1756999651916836977
0,0.43836689,20250904112731917,None,6,230.1169891357422,0,-1,-2,1,0,2,-2,-2,1756999651916969299
0,0.445872784,20250904112731924,None,6,230.83090209960938,1,0,-1,-1,-1,3,4,-1,1756999651924576520
0,0.445963621,20250904112731924,None,6,230.83090209960938,1,-1,-1,0,1,1,5,1,1756999651924740552
0,0.460666895,20250904112731939,None,6,229.87901306152344,-2,-4,1,-4,-1,-4,1,-1,1756999651939429283
0,0.4607656,20250904112731939,None,6,229.87901306152344,-2,-1,-1,-2,0,-7,-10,-2,1756999651939592599
0,0.46813941,20250904112731947,None,6,230.1169891357422,0,-1,1,-2,0,-2,4,2,1756999651946887016
0,0.468219996,20250904112731947,None,6,230.1169891357422,-3,-1,-1,1,-2,0,-3,-2,1756999651947028636
0,0.483295918,20250904112731962,None,6,229.64105224609375,-3,-1,1,1,-2,-4,-4,-5,1756999651961842060
0,0.483489275,20250904112731962,None,6,229.64105224609375,0,-2,-2,0,-1,-2,0,0,1756999651961985349
0,0.490761995,20250904112731969,None,6,229.64105224609375,0,0,-1,0,-4,-2,-10,-6,1756999651969394445
0,0.490998745,20250904112731969,None,6,231.06886291503906,-1,-4,1,-1,0,-1,-1,-2,1756999651969536542
0,0.498054504,20250904112731977,None,6,231.06886291503906,0,0,-2,1,-3,-4,-1,-3,1756999651976805210
0,0.498237848,20250904112731977,None,6,231.06886291503906,-1,2,-4,-5,-1,4,7,1,1756999651976957321
0,0.505612135,20250904112731984,None,6,229.87901306152344,-2,0,-1,1,-3,-2,1,-2,1756999651984339714
0,0.505785465,20250904112731984,None,6,229.87901306152344,-1,1,-1,-1,-1,-1,-4,0,1756999651984504461
0,0.520760775,20250904112731999,None,6,230.35494995117188,1,1,-2,-2,1,1,8,4,1756999651999428272
0,0.520916939,20250904112731999,None,6,230.35494995117188,0,-1,0,-1,-1,-5,-18,-3,1756999651999585866
0,0.528096914,20250904112732007,None,6,231.06886291503906,-1,0,-1,-4,-3,-2,0,-3,1756999652006839036
0,0.528253794,20250904112732007,None,6,231.06886291503906,-2,2,-2,-2,0,-3,0,-4,1756999652006966590
0,0.535586834,20250904112732014,None,6,231.06886291503906,-2,-1,-3,-5,-2,-1,2,-3,1756999652014344930
0,0.535696745,20250904112732014,None,6,231.06886291503906,-1,-3,0,1,-1,-2,2,-1,1756999652014468669
0,0.550628901,20250904112732029,None,6,230.59292602539062,-1,2,-1,-2,-1,3,2,1,1756999652029361486
0,0.550774098,20250904112732029,None,6,230.59292602539062,0,0,-2,-3,-3,-5,-2,-2,1756999652029490470
0,0.558153629,20250904112732037,None,6,230.83090209960938,-2,-5,-2,-1,1,-3,-12,-6,1756999652036857128
0,0.558303595,20250904112732037,None,6,230.83090209960938,0,-2,-2,2,1,4,7,3,1756999652036987543
0,0.56567049,20250904112732044,None,6,230.1169891357422,0,-1,-2,1,-1,-1,-3,-1,1756999652044371604
0,0.565825224,20250904112732044,None,6,230.1169891357422,-6,-4,-1,-5,-2,-1,-4,-3,1756999652044496536
0,0.580621481,20250904112732059,None,6,231.5447998046875,0,-2,2,-2,-1,-1,4,1,1756999652059362649
0,0.580786944,20250904112732059,None,6,231.5447998046875,-3,-3,0,1,-2,-3,-3,-1,1756999652059487342
0,0.588064194,20250904112732067,None,6,230.1169891357422,1,2,-1,1,-1,-2,-3,-5,1756999652066811800
0,0.588196278,20250904112732067,None,6,230.1169891357422,-2,-1,0,-3,-1,-2,-7,-5,1756999652066922426
0,0.595896006,20250904112732074,None,6,231.5447998046875,5,5,1,2,1,2,5,3,1756999652074572563
0,0.596029043,20250904112732075,None,6,231.5447998046875,-3,-6,-2,-1,-3,-6,-8,-3,1756999652074750661
0,0.610762119,20250904112732089,None,6,231.06886291503906,-1,-6,1,-1,-2,3,-5,-1,1756999652089431524
0,0.610901594,20250904112732089,None,6,231.06886291503906,-1,0,1,-3,-1,-2,3,3,1756999652089624166
0,0.618084431,20250904112732097,None,6,230.1169891357422,-1,-1,1,-2,1,-4,-2,-1,1756999652096848011
0,0.618213415,20250904112732097,None,6,230.1169891357422,1,-5,2,-2,0,2,4,-1,1756999652096979856
0,0.625660658,20250904112732104,None,6,230.1169891357422,1,0,-2,0,-2,-3,2,1,1756999652104385137
0,0.62578392,20250904112732104,None,6,230.1169891357422,0,1,-3,-4,0,-4,-6,-5,1756999652104547977
0,0.640624046,20250904112732119,None,6,230.83090209960938,1,1,3,-3,2,3,-3,-8,1756999652119391441
0,0.640738249,20250904112732119,None,6,230.83090209960938,-4,-1,0,0,1,0,-1,0,1756999652119533061
0,0.648173571,20250904112732127,None,6,230.35494995117188,-3,-2,-3,0,1,-2,-5,1,1756999652126871109
0,0.648379326,20250904112732127,None,6,230.35494995117188,-3,-2,-3,0,-1,-2,-9,-6,1756999652127006769
0,0.655898571,20250904112732134,None,6,231.3068389892578,1,-3,1,-4,2,3,4,0,1756999652134390592
0,0.656137705,20250904112732135,None,6,231.3068389892578,1,0,0,-2,-1,-1,-2,-5,1756999652134636878
0,0.670912743,20250904112732149,None,6,229.403076171875,0,-2,-2,-2,-2,-5,-11,-3,1756999652149423599
0,0.671177387,20250904112732150,None,6,229.403076171875,-1,-1,-1,-1,-1,5,4,0,1756999652149583339
0,0.678222418,20250904112732157,None,6,231.5447998046875,-1,-3,1,1,-4,-4,-12,-6,1756999652156808614
0,0.678445101,20250904112732157,None,6,231.5447998046875,-1,-1,0,-1,-3,-1,6,0,1756999652156940698
0,0.685817242,20250904112732164,None,6,229.87901306152344,-3,-1,-1,-3,0,-2,1,-1,1756999652164336204
0,0.686042547,20250904112732165,None,6,229.87901306152344,0,-2,2,-1,2,2,-5,1,1756999652164472818
0,0.700857878,20250904112732179,None,6,231.06886291503906,-1,-1,-1,-4,0,4,18,6,1756999652179376602
0,0.701069832,20250904112732180,None,6,231.06886291503906,1,0,-1,0,-1,-3,-10,-3,1756999652179532527
0,0.708536863,20250904112732187,None,6,230.59292602539062,-1,0,0,0,-2,-5,-9,-2,1756999652186826229
0,0.708737612,20250904112732187,None,6,230.59292602539062,-3,-3,1,-1,1,0,-2,-4,1756999652186937093
0,0.716071367,20250904112732195,None,6,230.83090209960938,-2,-2,0,-7,-1,0,6,1,1756999652194357156
0,0.716349363,20250904112732195,None,6,230.83090209960938,-1,1,-1,2,1,0,-2,-2,1756999652194478750
0,0.730923414,20250904112732209,None,6,230.35494995117188,-1,-3,-3,-2,-1,2,-4,-3,1756999652209338665
0,0.731138706,20250904112732210,None,6,230.35494995117188,-1,1,0,-3,-1,0,-1,1,1756999652209465026
0,0.738572836,20250904112732217,None,6,230.35494995117188,-1,0,2,-2,-2,0,-10,-2,1756999652216804504
0,0.738912106,20250904112732217,None,6,231.3068389892578,0,-5,-1,-3,0,-1,-3,-4,1756999652216921567
0,0.745981217,20250904112732224,None,6,231.3068389892578,0,5,-1,0,-2,-1,4,-1,1756999652224295854
0,0.746180058,20250904112732225,None,6,231.3068389892578,-2,-4,-3,-1,-2,-2,-2,-3,1756999652224400758
0,0.76108098,20250904112732240,None,6,231.78277587890625,0,-2,-1,-1,-3,2,-1,1,1756999652239363431
0,0.76149559,20250904112732240,None,6,231.78277587890625,-1,0,-1,-1,-1,5,9,2,1756999652239490747
0,0.768536806,20250904112732247,None,6,230.1169891357422,-3,0,0,0,-1,-3,-8,-4,1756999652246845006
0,0.768754959,20250904112732247,None,6,230.1169891357422,0,0,-2,-1,-1,-5,-19,-7,1756999652246973752
0,0.776010513,20250904112732255,None,6,231.5447998046875,-1,0,2,0,-1,4,16,5,1756999652254342794
0,0.776227236,20250904112732255,None,6,231.5447998046875,-1,-1,-3,0,-4,-1,-4,3,1756999652254453659
0,0.791180849,20250904112732270,None,6,230.35494995117188,1,0,-1,-3,-3,-7,-10,-6,1756999652269491434
0,0.791381121,20250904112732270,None,6,230.35494995117188,-2,2,0,-2,-2,4,11,-2,1756999652269682884
0,0.798654795,20250904112732277,None,6,230.83090209960938,2,1,1,0,3,-1,-4,1,1756999652276895523
0,0.798871517,20250904112732277,None,6,230.83090209960938,-1,3,-1,-1,-3,-6,-3,-1,1756999652277065992
0,0.805641651,20250904112732284,None,6,231.06886291503906,-3,-5,-1,2,1,5,7,1,1756999652284327268
0,0.805814505,20250904112732284,None,6,231.06886291503906,-4,-4,-2,-3,-1,-3,-7,-4,1756999652284446001
0,0.820716381,20250904112732299,None,6,230.1169891357422,1,0,-1,1,4,1,4,0,1756999652299407720
0,0.820999622,20250904112732299,None,6,230.1169891357422,1,0,0,-1,-1,-4,-3,1,1756999652299739599
0,0.828156948,20250904112732307,None,6,231.06886291503906,-1,-3,-1,0,-2,-5,-9,-4,1756999652306928157
0,0.82822299,20250904112732307,None,6,231.06886291503906,0,0,0,1,2,3,0,0,1756999652307088851
0,0.835690737,20250904112732314,None,6,229.87901306152344,-2,-1,0,-2,1,-1,-4,-1,1756999652314444541
0,0.835780382,20250904112732314,None,6,229.87901306152344,-2,0,0,-3,3,0,-2,-2,1756999652314627408
0,0.850734472,20250904112732329,None,6,229.87901306152344,-3,2,-2,-4,-4,-3,-7,-3,1756999652329388380
0,0.850904226,20250904112732329,None,6,229.87901306152344,0,1,-2,-2,0,2,10,4,1756999652329552412
0,0.858023882,20250904112732337,None,6,229.87901306152344,-4,0,0,1,2,-7,-15,-3,1756999652336816787
0,0.858111143,20250904112732337,None,6,229.87901306152344,0,-4,1,-1,3,9,20,6,1756999652336972236
0,0.86596489,20250904112732344,None,6,231.3068389892578,0,-4,-3,-4,0,-6,-10,-3,1756999652344341278
0,0.866225004,20250904112732345,None,6,231.3068389892578,0,0,0,0,0,3,-7,-3,1756999652344466447
0,0.880988121,20250904112732359,None,6,230.83090209960938,-3,-2,0,1,-2,-2,2,-3,1756999652359338045
0,0.88120389,20250904112732360,None,6,230.83090209960938,0,-2,0,-3,-3,-2,3,1,1756999652359511613
0,0.888366938,20250904112732367,None,6,230.59292602539062,-3,2,0,1,-2,2,1,0,1756999652366865873
0,0.888491631,20250904112732367,None,6,230.59292602539062,-3,-2,0,-1,1,-5,-4,0,1756999652366989135
0,0.895798445,20250904112732374,None,6,230.59292602539062,0,1,-1,-3,-1,-4,-11,-7,1756999652374356031
0,0.895916224,20250904112732374,None,6,230.59292602539062,2,0,0,0,1,3,3,0,1756999652374471426
0,0.910642862,20250904112732389,None,6,230.83090209960938,-3,0,-1,-3,-2,-4,-3,1,1756999652389280796
0,0.910714865,20250904112732389,None,6,230.83090209960938,-1,0,-1,-3,-2,-3,-1,-2,1756999652389389753
0,0.918180943,20250904112732397,None,6,229.87901306152344,-1,0,-1,3,3,2,-3,-1,1756999652396787881
0,0.91825676,20250904112732397,None,6,229.87901306152344,-2,-4,-1,2,-1,-3,-6,-2,1756999652396901845
0,0.925832749,20250904112732404,None,6,231.06886291503906,1,-1,0,-2,-1,0,-4,-1,1756999652404359817
0,0.925937176,20250904112732404,None,6,231.06886291503906,-2,0,-1,0,-1,-8,-15,-4,1756999652404500007
0,0.940911055,20250904112732419,None,6,229.403076171875,-1,-3,-2,-1,2,5,16,3,1756999652419470071
0,0.941002846,20250904112732419,None,6,229.403076171875,-2,3,0,0,-2,-3,0,-1,1756999652419636487
0,0.948003531,20250904112732426,None,6,231.3068389892578,2,-3,-2,-1,-3,0,-3,-2,1756999652426760673
0,0.948075295,20250904112732427,None,6,231.3068389892578,1,2,-2,-1,1,3,4,3,1756999652426861047
0,0.955613375,20250904112732434,None,6,229.87901306152344,-2,1,1,0,-2,-10,-22,-12,1756999652434339046
0,0.955924511,20250904112732434,None,6,229.87901306152344,0,-2,-2,1,0,2,13,3,1756999652434567451
0,0.970912218,20250904112732449,None,6,230.59292602539062,0,-1,-1,-2,0,3,6,2,1756999652449383497
0,0.971154213,20250904112732450,None,6,230.59292602539062,0,1,-1,-3,-3,0,-5,0,1756999652449548959
0,0.978213072,20250904112732457,None,6,230.59292602539062,-1,-2,-1,-4,-2,-4,-12,-2,1756999652456773996
0,0.97857666,20250904112732457,None,6,230.59292602539062,0,1,1,3,0,5,13,2,1756999652456922054
0,0.985639572,20250904112732464,None,6,230.35494995117188,-4,-3,-1,-5,-2,-5,-14,-7,1756999652464298248
0,0.985857964,20250904112732464,None,6,230.35494995117188,0,1,0,1,3,9,21,9,1756999652464423179
0,1.001125097,20250904112732480,None,6,229.64105224609375,-2,-1,-3,-1,0,-2,-7,0,1756999652479404449
0,1.001358271,20250904112732480,None,6,229.64105224609375,0,1,1,2,-2,-3,-9,-4,1756999652479539632
0,1.008578062,20250904112732487,None,6,231.3068389892578,-2,-2,-3,-3,-2,2,9,5,1756999652486859321
0,1.008816242,20250904112732487,None,6,231.3068389892578,0,-2,-1,0,-3,-13,-11,-5,1756999652486991643
0,1.0160532,20250904112732495,None,6,229.87901306152344,2,-1,1,2,-1,3,4,1,1756999652494365692
0,1.016298056,20250904112732495,None,6,229.87901306152344,-3,-5,-3,-1,-3,-5,-11,-7,1756999652494488000
0,1.031143189,20250904112732510,None,6,231.5447998046875,-1,-1,2,1,0,1,1,-1,1756999652509459733
0,1.0313797,20250904112732510,None,6,231.5447998046875,-2,0,-1,-1,1,0,-5,-3,1756999652509598493
0,1.038528681,20250904112732517,None,6,230.1169891357422,-2,-1,0,-3,1,1,3,0,1756999652516825199
0,1.038816452,20250904112732517,None,6,230.1169891357422,-4,0,-2,-3,-3,-5,-16,-6,1756999652516944646
0,1.046113014,20250904112732525,None,6,231.06886291503906,1,0,-2,1,0,2,12,4,1756999652524303197
0,1.046334505,20250904112732525,None,6,231.06886291503906,-1,-1,-3,-3,-3,-1,-9,-4,1756999652524489641
0,1.061136484,20250904112732540,None,6,230.35494995117188,2,-3,1,-1,0,-2,-4,0,1756999652539388418
0,1.061546326,20250904112732540,None,6,230.35494995117188,1,-1,0,0,-1,2,6,2,1756999652539521455
0,1.068459511,20250904112732547,None,6,230.83090209960938,2,-2,-1,-1,2,-7,-8,1,1756999652546802282
0,1.06862402,20250904112732547,None,6,230.83090209960938,1,-3,-1,0,0,5,10,0,1756999652546903848
0,1.076256991,20250904112732555,None,6,230.83090209960938,1,-1,0,-1,-3,-3,-9,-4,1756999652554527282
0,1.076502085,20250904112732555,None,6,230.83090209960938,-3,0,-3,-1,-2,-2,-3,-1,1756999652554691791
0,1.090955734,20250904112732569,None,6,231.3068389892578,4,-2,1,-2,-1,-3,-3,-2,1756999652569376707
0,1.091169834,20250904112732570,None,6,231.3068389892578,1,-3,0,-2,-1,1,0,1,1756999652569552421
0,1.098359823,20250904112732577,None,6,229.87901306152344,-3,1,-2,-3,0,-3,-5,-1,1756999652576787233
0,1.098572731,20250904112732577,None,6,229.87901306152344,-2,1,3,-1,0,1,0,-2,1756999652576907873
0,1.106041193,20250904112732585,None,6,229.87901306152344,-1,-3,-1,-1,-1,-8,-10,-1,1756999652584323883
0,1.106210947,20250904112732585,None,6,229.87901306152344,1,-2,-3,-2,-1,8,19,8,1756999652584538221
0,1.12092042,20250904112732599,None,6,229.87901306152344,-2,-2,0,3,-4,-4,-8,-6,1756999652599580049
0,1.121070624,20250904112732600,None,6,229.87901306152344,2,-3,-2,-2,0,-4,-7,-2,1756999652599768161
0,1.128085852,20250904112732607,None,6,231.06886291503906,-2,-2,2,0,-1,-2,-2,0,1756999652606821775
0,1.128213644,20250904112732607,None,6,231.06886291503906,-4,-5,0,-6,-1,-7,-10,-3,1756999652606941461
0,1.135592699,20250904112732614,None,6,229.87901306152344,0,0,1,4,0,3,11,1,1756999652614340782
0,1.135947228,20250904112732614,None,6,229.87901306152344,-4,1,-2,2,-2,3,5,1,1756999652614453554
0,1.150434733,20250904112732629,None,6,230.83090209960938,-2,-5,-6,-1,-1,-7,-4,1,1756999652629199981
0,1.150528669,20250904112732629,None,6,230.83090209960938,1,-2,-2,-1,-1,-1,-4,-6,1756999652629353761
0,1.158088446,20250904112732637,None,6,230.83090209960938,-3,-1,-2,0,-1,-6,-6,-3,1756999652636785268
0,1.158201218,20250904112732637,None,6,230.83090209960938,0,-1,-2,-1,0,1,-1,-3,1756999652636922121
0,1.165629149,20250904112732644,None,6,230.59292602539062,0,2,-2,-1,1,-2,-5,2,1756999652644369363
0,1.165744782,20250904112732644,None,6,230.59292602539062,-2,-7,-3,-1,0,3,2,-3,1756999652644543647
0,1.180724621,20250904112732659,None,6,231.3068389892578,1,-2,1,-4,-2,3,13,4,1756999652659440994
0,1.180828095,20250904112732659,None,6,231.3068389892578,0,3,-4,0,1,-3,-3,-4,1756999652659604549
0,1.188257456,20250904112732667,None,6,229.64105224609375,-2,-1,-2,-1,-2,-4,-12,-4,1756999652666855573
0,1.188392401,20250904112732667,None,6,229.64105224609375,0,-2,0,2,1,4,6,1,1756999652666976690
0,1.195716858,20250904112732674,None,6,231.5447998046875,2,-1,0,-2,0,1,5,3,1756999652674461364
0,1.195824862,20250904112732674,None,6,231.5447998046875,-1,0,-2,2,0,-2,-6,-2,1756999652674607515
0,1.210813522,20250904112732689,None,6,231.06886291503906,0,-1,0,1,1,1,-4,-5,1756999652689349174
0,1.2109744550000001,20250904112732689,None,6,231.06886291503906,-2,-1,-3,-1,-4,-6,-13,-8,1756999652689491748
0,1.218446732,20250904112732697,None,6,229.87901306152344,2,-2,-1,0,1,8,16,4,1756999652696810483
0,1.2186555860000001,20250904112732697,None,6,229.87901306152344,-1,-1,-2,1,-1,3,12,7,1756999652696994781
0,1.225882053,20250904112732704,None,6,229.87901306152344,1,1,0,-1,-1,0,-3,-3,1756999652704313039
0,1.226124287,20250904112732705,None,6,229.87901306152344,3,2,-2,-1,0,-3,-4,-4,1756999652704447507
0,1.241003752,20250904112732720,None,6,230.83090209960938,1,0,-4,-3,1,-5,-7,-1,1756999652719413995
0,1.241295099,20250904112732720,None,6,230.83090209960938,-2,-1,1,0,0,0,-7,2,1756999652719539642
0,1.248497248,20250904112732727,None,6,230.1169891357422,-2,1,-4,-1,-1,0,-7,-2,1756999652726839780
0,1.248732805,20250904112732727,None,6,230.1169891357422,-1,-3,-1,1,0,3,5,1,1756999652726954698
0,1.2555947299999999,20250904112732734,None,6,231.06886291503906,-1,-4,-2,-3,-2,0,-2,-5,1756999652734339952
0,1.255755663,20250904112732734,None,6,231.06886291503906,-3,-3,-4,0,0,-3,-4,0,1756999652734456300
0,1.270525932,20250904112732749,None,6,229.87901306152344,-1,1,1,-1,2,2,1,2,1756999652749314069
0,1.270686388,20250904112732749,None,6,229.87901306152344,1,-2,0,1,-3,5,4,0,1756999652749428510
0,1.278138638,20250904112732757,None,6,231.5447998046875,1,2,-4,-1,-1,0,4,4,1756999652756851434
0,1.278314829,20250904112732757,None,6,231.5447998046875,0,1,-1,0,1,2,7,3,1756999652756977558
0,1.285535574,20250904112732764,None,6,229.87901306152344,-2,-1,-4,1,-2,-2,-10,-7,1756999652764300107
0,1.285638332,20250904112732764,None,6,229.87901306152344,-1,-3,0,-3,-4,0,0,4,1756999652764408826
0,1.30066371,20250904112732779,None,6,231.3068389892578,-5,-1,-2,-2,0,-10,-17,-6,1756999652779380083
0,1.300794602,20250904112732779,None,6,231.3068389892578,3,1,-1,2,2,7,9,2,1756999652779499053
0,1.308166266,20250904112732787,None,6,230.1169891357422,-1,0,-5,-2,-2,1,3,5,1756999652786812782
0,1.308289051,20250904112732787,None,6,230.1169891357422,-5,2,-1,-3,-2,-1,-4,-7,1756999652786916971
0,1.315562487,20250904112732794,None,6,230.83090209960938,-2,0,0,2,-1,-11,-25,-6,1756999652794351816
0,1.315786123,20250904112732794,None,6,230.83090209960938,1,0,-3,0,0,9,22,10,1756999652794461250
0,1.330497027,20250904112732809,None,6,230.59292602539062,0,-1,0,-2,1,4,8,2,1756999652809265613
0,1.3306152820000001,20250904112732809,None,6,230.59292602539062,0,-1,-5,-2,-1,1,2,2,1756999652809372901
0,1.346222162,20250904112732825,None,6,231.06886291503906,1,-2,-3,-1,-3,-5,-7,-4,1756999652824876308
0,1.346348763,20250904112732825,None,6,231.06886291503906,-2,-5,-5,-2,0,-4,-9,1,1756999652824980020
0,1.346894264,20250904112732825,None,6,231.06886291503906,0,0,-3,-2,1,1,14,6,1756999652825709819
0,1.346965075,20250904112732825,None,6,231.06886291503906,-2,-1,-1,-1,0,-3,-5,-5,1756999652825810194
0,1.36069274,20250904112732839,None,6,231.3068389892578,-1,-1,0,-4,0,1,0,0,1756999652839332818
0,1.3610439300000001,20250904112732840,None,6,231.3068389892578,-2,-1,0,0,-1,0,-5,-3,1756999652839461088
0,1.368247509,20250904112732847,None,6,229.87901306152344,1,-2,-3,-1,0,-7,-21,-3,1756999652846801519
0,1.3683805470000001,20250904112732847,None,6,229.87901306152344,-1,0,-1,1,1,8,20,2,1756999652846906900
0,1.383151293,20250904112732862,None,6,231.5447998046875,-4,-1,-1,0,-1,2,-3,-2,1756999652861721754
0,1.383295059,20250904112732862,None,6,231.5447998046875,1,3,-2,-1,-1,3,7,2,1756999652861823081
0,1.390712023,20250904112732869,None,6,229.87901306152344,0,-3,0,-1,-2,-2,-2,0,1756999652869261503
0,1.390837193,20250904112732869,None,6,229.87901306152344,-1,-3,1,1,-2,0,-4,-3,1756999652869360446
0,1.398008108,20250904112732876,None,6,230.83090209960938,0,-2,-2,-3,0,-2,-3,1,1756999652876738309
0,1.39811635,20250904112732877,None,6,230.83090209960938,0,0,-3,-1,1,-6,-10,-4,1756999652876855373
0,1.41318965,20250904112732892,None,6,230.35494995117188,2,2,-2,0,-2,1,2,2,1756999652891767501
0,1.413304806,20250904112732892,None,6,230.35494995117188,-4,-3,-4,-5,-3,0,-3,-6,1756999652891887426
0,1.420923233,20250904112732899,None,6,230.83090209960938,3,1,-2,1,2,5,9,6,1756999652899391651
0,1.421103239,20250904112732900,None,6,230.83090209960938,1,-2,-1,-1,-3,-2,-5,-2,1756999652899553775
0,1.428353787,20250904112732907,None,6,230.83090209960938,1,1,-1,-1,0,1,3,4,1756999652906805276
0,1.4285190110000001,20250904112732907,None,6,230.83090209960938,-1,-1,-1,-1,-2,-9,-21,-12,1756999652906941175
0,1.443071127,20250904112732922,None,6,231.06886291503906,0,-1,1,-3,0,5,3,-2,1756999652921746253
0,1.4432020190000001,20250904112732922,None,6,231.06886291503906,0,1,0,-2,3,4,11,3,1756999652921866893
0,1.45871234,20250904112732937,None,6,231.5447998046875,1,-1,1,-1,-1,-4,-1,-3,1756999652937500476
0,1.45931387,20250904112732938,None,6,231.5447998046875,1,2,0,0,0,-1,0,-2,1756999652937652587
0,1.459760904,20250904112732938,None,6,231.5447998046875,1,-2,0,0,0,4,4,3,1756999652938254356
0,1.459938049,20250904112732938,None,6,231.5447998046875,-1,1,1,1,-3,2,-7,-2,1756999652938363313
0,1.473649025,20250904112732952,None,6,230.35494995117188,0,-1,0,-2,-4,-14,-24,-3,1756999652951890230
0,1.473850012,20250904112732952,None,6,230.35494995117188,-4,1,0,-1,-2,10,16,5,1756999652952049255
0,1.480769873,20250904112732959,None,6,231.06886291503906,1,0,-2,0,0,1,7,-1,1756999652959262371
0,1.4809291359999999,20250904112732959,None,6,231.06886291503906,1,-2,0,3,-1,0,5,4,1756999652959366083
0,1.488247633,20250904112732967,None,6,230.59292602539062,0,-1,2,-2,-2,-5,-6,-3,1756999652966776847
0,1.48849082,20250904112732967,None,6,230.59292602539062,-2,0,-2,-3,2,-7,-17,-5,1756999652966929435
0,1.503509283,20250904112732982,None,6,230.35494995117188,-2,2,-3,0,1,0,8,-4,1756999652981899023
0,1.503683329,20250904112732982,None,6,230.35494995117188,-4,-2,-1,-1,0,2,1,-3,1756999652982033729
0,1.510689736,20250904112732989,None,6,230.83090209960938,1,1,2,-1,0,-2,1,2,1756999652989389657
0,1.5108137130000001,20250904112732989,None,6,230.83090209960938,-1,-1,-1,0,-3,-4,-4,-1,1756999652989542245
0,1.518059492,20250904112732997,None,6,229.87901306152344,-1,0,-1,1,-1,0,-2,-3,1756999652996838092
0,1.518146753,20250904112732997,None,6,229.87901306152344,-1,-2,3,-1,1,-2,0,-2,1756999652996973991
0,1.533040047,20250904112733012,None,6,229.64105224609375,-3,-2,0,-2,0,-2,4,2,1756999653011772155
0,1.533164501,20250904112733012,None,6,229.64105224609375,-4,1,-3,0,-3,-1,-8,-3,1756999653011881828
0,1.540512323,20250904112733019,None,6,229.64105224609375,1,3,-3,0,0,2,4,1,1756999653019308090
0,1.540605784,20250904112733019,None,6,229.64105224609375,-3,2,-2,0,-2,3,5,3,1756999653019423723
0,1.548076391,20250904112733027,None,6,231.5447998046875,-1,-3,0,0,0,-3,-7,-8,1756999653026798963
0,1.548200131,20250904112733027,None,6,231.5447998046875,0,-2,-1,-1,-3,-3,6,2,1756999653026908874
0,1.563224554,20250904112733042,None,6,230.59292602539062,-1,1,-2,1,1,3,2,2,1756999653041952371
0,1.5634257790000001,20250904112733042,None,6,230.59292602539062,-1,-2,-3,-3,-4,-3,1,2,1756999653042071819
0,1.57068181,20250904112733049,None,6,230.83090209960938,1,-1,0,-2,-1,-1,0,1,1756999653049474716
0,1.5707788470000001,20250904112733049,None,6,230.83090209960938,-1,-2,-2,-5,-3,-1,-4,-4,1756999653049588918
0,1.5780098439999999,20250904112733056,None,6,230.83090209960938,1,0,-2,-3,-2,-4,-15,-1,1756999653056818962
0,1.578119278,20250904112733057,None,6,230.83090209960938,-1,-1,1,1,-3,5,8,5,1756999653056923866
0,1.593013525,20250904112733071,None,6,231.06886291503906,-2,2,1,0,-1,-4,-12,2,1756999653071779251
0,1.593124628,20250904112733072,None,6,231.06886291503906,-2,2,-1,1,0,5,9,1,1756999653071900367
0,1.600578547,20250904112733079,None,6,230.1169891357422,-2,2,-1,0,0,-3,-6,-3,1756999653079333543
0,1.600695849,20250904112733079,None,6,230.1169891357422,2,1,0,1,0,0,0,-4,1756999653079472064
0,1.615557909,20250904112733094,None,6,229.403076171875,1,-1,0,0,2,2,7,5,1756999653094317913
0,1.615678787,20250904112733094,None,6,229.403076171875,-1,-1,-2,1,-3,-5,-8,-6,1756999653094438076
0,1.623037815,20250904112733102,None,6,229.403076171875,0,-4,-5,-3,0,-1,-6,-1,1756999653101753950
0,1.623157024,20250904112733102,None,6,229.403076171875,-2,-2,-3,-4,-2,4,3,2,1756999653101861476
0,1.6307706830000002,20250904112733109,None,6,231.5447998046875,2,1,-3,1,-1,-1,-5,-4,1756999653109471559
0,1.630923033,20250904112733109,None,6,231.5447998046875,-1,-1,3,-3,1,1,-1,-3,1756999653109704971
0,1.638217926,20250904112733117,None,6,229.87901306152344,3,1,-4,-1,-1,-1,6,4,1756999653116975069
0,1.638343573,20250904112733117,None,6,229.87901306152344,-4,-4,-2,-2,1,-1,-3,-1,1756999653117100954
0,1.653221846,20250904112733132,None,6,230.35494995117188,-3,-1,-2,-2,-2,-6,-8,-6,1756999653131941556
0,1.653392077,20250904112733132,None,6,230.35494995117188,0,-1,1,1,-1,2,6,2,1756999653132073163
0,1.660690785,20250904112733139,None,6,230.35494995117188,0,0,-1,0,1,-2,10,3,1756999653139422655
0,1.6612906459999999,20250904112733140,None,6,230.35494995117188,-3,0,-1,0,-1,-13,-31,-12,1756999653139545440
0,1.6685469149999999,20250904112733147,None,6,230.83090209960938,0,0,-1,1,1,10,17,4,1756999653146860122
0,1.6688570980000001,20250904112733147,None,6,230.83090209960938,-1,-4,-3,-1,-4,0,2,0,1756999653146961688
0,1.6837282180000002,20250904112733162,None,6,229.87901306152344,0,0,-2,1,-3,-8,-21,-6,1756999653161986827
0,1.683978081,20250904112733162,None,6,229.87901306152344,1,0,0,-1,-1,4,18,3,1756999653162093639
0,1.6912562850000001,20250904112733170,None,6,231.06886291503906,-2,-1,-4,-3,2,0,8,2,1756999653169537782
0,1.691539049,20250904112733170,None,6,231.06886291503906,0,-1,1,0,-3,-8,-4,3,1756999653169699907
0,1.6986663339999999,20250904112733177,None,6,229.64105224609375,0,0,-1,-2,-1,-3,-8,-8,1756999653176938295
0,1.698886156,20250904112733177,None,6,229.64105224609375,0,0,1,-1,-1,0,-5,-4,1756999653177066087
0,1.713624001,20250904112733192,None,6,230.83090209960938,-2,-1,-1,-1,-1,0,0,-2,1756999653191923379
0,1.71405673,20250904112733193,None,6,230.83090209960938,-1,1,2,0,0,4,8,0,1756999653192043542
0,1.720963955,20250904112733199,None,6,229.87901306152344,-1,0,-1,-3,-2,-3,-3,1,1756999653199314594
0,1.721230507,20250904112733200,None,6,229.87901306152344,-2,2,-2,-3,1,2,0,3,1756999653199409961
0,1.728648663,20250904112733207,None,6,231.06886291503906,1,-4,-3,-2,-3,1,-2,0,1756999653206922531
0,1.728830099,20250904112733207,None,6,231.06886291503906,-1,2,-1,-3,-3,-5,-2,-1,1756999653207044839
0,1.743104458,20250904112733222,None,6,230.35494995117188,-3,-3,-4,0,-3,-2,-5,-4,1756999653221834182
0,1.743237972,20250904112733222,None,6,230.35494995117188,-4,-1,1,-1,-3,-8,-10,-3,1756999653221956014
0,1.750537396,20250904112733229,None,6,230.83090209960938,0,1,-1,1,1,6,20,4,1756999653229331970
0,1.7506699559999999,20250904112733229,None,6,230.83090209960938,2,-2,1,-1,0,-4,-12,0,1756999653229437351
0,1.75796032,20250904112733236,None,6,230.59292602539062,0,0,-2,-3,0,-3,0,-2,1756999653236750602
0,1.758048534,20250904112733237,None,6,230.59292602539062,-1,0,-3,-1,1,-4,0,0,1756999653236854791
0,1.773206949,20250904112733252,None,6,231.3068389892578,0,-1,0,0,1,-1,-1,-5,1756999653251841545
0,1.7733931539999999,20250904112733252,None,6,231.3068389892578,-1,-5,0,1,-1,-5,-7,0,1756999653252043247
0,1.780462504,20250904112733259,None,6,231.3068389892578,0,-1,1,1,2,6,5,-1,1756999653259277343
0,1.780594111,20250904112733259,None,6,231.3068389892578,-1,0,-2,-4,1,3,9,4,1756999653259436368
0,1.788743019,20250904112733267,None,6,229.64105224609375,-2,0,-2,-2,-1,-3,0,-4,1756999653267505645
0,1.7888436319999999,20250904112733267,None,6,229.64105224609375,1,-1,1,-1,0,1,-1,-1,1756999653267653942
0,1.8031528,20250904112733282,None,6,229.64105224609375,1,2,-4,-1,-3,1,2,1,1756999653281875371
0,1.803287029,20250904112733282,None,6,229.64105224609375,-1,-1,0,-2,-4,2,4,-2,1756999653282011508
0,1.810621977,20250904112733289,None,6,231.3068389892578,-1,-3,0,-2,-3,-4,-5,-3,1756999653289401054
0,1.810725927,20250904112733289,None,6,231.3068389892578,1,-4,-1,1,1,-1,1,1,1756999653289541482
0,1.818077564,20250904112733297,None,6,231.3068389892578,-1,-3,-3,-8,-3,-3,-6,-4,1756999653296844244
0,1.818166733,20250904112733297,None,6,231.3068389892578,-2,0,-2,-1,-3,-2,-3,-4,1756999653296983718
0,1.833104372,20250904112733312,None,6,231.06886291503906,-3,-1,-1,1,-1,2,6,-1,1756999653311811923
0,1.833235502,20250904112733312,None,6,231.06886291503906,-2,-4,-4,0,1,4,3,2,1756999653311913013
0,1.840658426,20250904112733319,None,6,230.83090209960938,-3,-2,-1,-5,-2,-3,-5,-3,1756999653319416999
0,1.840781689,20250904112733319,None,6,230.83090209960938,4,-2,0,-2,2,-2,2,-1,1756999653319558620
0,1.848100424,20250904112733327,None,6,230.83090209960938,-3,1,-3,-2,1,-5,-14,-2,1756999653326821088
0,1.848219872,20250904112733327,None,6,230.83090209960938,0,0,-2,-2,-4,4,10,-1,1756999653326962709
0,1.863246441,20250904112733342,None,6,229.87901306152344,-3,1,-1,2,-3,1,-5,-4,1756999653341958045
0,1.863555431,20250904112733342,None,6,229.87901306152344,-1,0,-2,-1,-2,2,-4,1,1756999653342103958
0,1.8707571029999999,20250904112733349,None,6,229.87901306152344,3,0,0,1,-3,2,6,6,1756999653349507570
0,1.870927334,20250904112733349,None,6,229.87901306152344,1,1,-2,1,0,-1,-5,2,1756999653349718809
0,1.878305912,20250904112733357,None,6,231.3068389892578,3,-1,1,-3,1,2,6,3,1756999653357004642
0,1.878427029,20250904112733357,None,6,231.3068389892578,1,-2,-2,-2,1,-9,-19,-5,1756999653357151031
0,1.893162966,20250904112733372,None,6,231.3068389892578,-1,-2,0,-5,-2,6,26,12,1756999653371902704
0,1.893302202,20250904112733372,None,6,231.3068389892578,1,0,0,-1,-1,0,3,-1,1756999653372021675
0,1.900817871,20250904112733379,None,6,230.35494995117188,2,1,-1,-5,1,-5,-7,0,1756999653379485130
0,1.9009397030000001,20250904112733379,None,6,230.35494995117188,-2,1,0,-3,-1,3,1,0,1756999653379636049
0,1.908243656,20250904112733387,None,6,230.35494995117188,-1,-1,-1,-1,1,-4,-14,-4,1756999653386958837
0,1.908396483,20250904112733387,None,6,230.35494995117188,1,0,0,-2,1,5,17,3,1756999653387099504
0,1.9232971669999999,20250904112733402,None,6,231.06886291503906,1,0,-1,-1,0,-1,9,0,1756999653401996374
0,1.9234178069999999,20250904112733402,None,6,231.06886291503906,-2,-3,1,-2,-2,-1,-1,-2,1756999653402140617
0,1.930804014,20250904112733409,None,6,230.1169891357422,-1,3,-2,0,-1,-5,-4,0,1756999653409485816
0,1.9309813980000001,20250904112733409,None,6,230.1169891357422,-2,-5,-2,0,-1,-4,-3,-1,1756999653409701108
0,1.938228369,20250904112733417,None,6,230.83090209960938,-1,0,0,-1,-1,-4,-8,-3,1756999653416974067
0,1.938372612,20250904112733417,None,6,230.83090209960938,-2,1,-1,0,0,-3,-7,-4,1756999653417096853
0,1.9530515670000002,20250904112733432,None,6,230.1169891357422,-1,0,0,-2,1,4,9,-1,1756999653431777000
0,1.953172922,20250904112733432,None,6,230.1169891357422,0,2,-3,0,-2,0,-3,-3,1756999653431891441
0,1.9605672360000002,20250904112733439,None,6,231.3068389892578,-3,-1,1,1,-1,-2,0,-1,1756999653439332008
0,1.960704088,20250904112733439,None,6,231.3068389892578,0,-1,-2,-2,-2,0,-6,-1,1756999653439453125
0,1.96810174,20250904112733447,None,6,230.1169891357422,1,2,1,-1,-1,-4,-4,0,1756999653446818113
0,1.96824646,20250904112733447,None,6,230.1169891357422,0,0,-1,-2,-2,-4,-8,-1,1756999653446941375
0,1.983188391,20250904112733462,None,6,231.3068389892578,-3,0,-1,1,4,6,4,-4,1756999653461850404
0,1.983351708,20250904112733462,None,6,231.3068389892578,1,-2,-1,-1,-1,0,7,2,1756999653461995601
0,1.990579844,20250904112733469,None,6,230.1169891357422,-6,-1,-1,-2,-3,-2,-6,-5,1756999653469343185
0,1.9907116889999998,20250904112733469,None,6,230.1169891357422,0,3,0,-1,3,1,15,6,1756999653469454526
0,1.9980607030000002,20250904112733477,None,6,230.83090209960938,1,0,0,2,-2,0,0,0,1756999653476826906
0,1.9981813430000002,20250904112733477,None,6,230.83090209960938,-3,-1,0,-1,-1,-7,-6,-3,1756999653476953268
0,2.013096571,20250904112733492,None,6,230.59292602539062,-1,-3,-3,-2,-1,-3,-14,-4,1756999653491824388
0,2.013245583,20250904112733492,None,6,230.59292602539062,0,-1,-1,2,1,9,18,4,1756999653491964817
0,2.020757198,20250904112733499,None,6,230.83090209960938,-3,0,-2,0,-1,-3,2,-3,1756999653499465942
0,2.020918608,20250904112733499,None,6,230.83090209960938,1,-2,-1,-1,0,-11,-17,-4,1756999653499688863
0,2.028100968,20250904112733507,None,6,230.83090209960938,2,2,3,-1,-1,-6,-8,-2,1756999653506845474
0,2.028199911,20250904112733507,None,6,230.83090209960938,0,-1,-1,-1,-1,2,4,2,1756999653506994485
0,2.043155432,20250904112733522,None,6,231.06886291503906,-2,-2,-4,0,2,9,8,0,1756999653521880865
0,2.04330945,20250904112733522,None,6,231.06886291503906,0,3,-1,-3,-3,1,3,-5,1756999653522036314
0,2.050612688,20250904112733529,None,6,229.403076171875,2,-1,-1,-1,0,-3,2,-3,1756999653529391288
0,2.050708056,20250904112733529,None,6,229.403076171875,-3,-7,2,-1,1,-3,-5,1,1756999653529533863
0,2.058077335,20250904112733537,None,6,231.06886291503906,-1,1,-1,-2,-2,-6,-7,-3,1756999653536828041
0,2.0581882,20250904112733537,None,6,231.06886291503906,2,-1,0,-2,-1,1,2,0,1756999653536971569
0,2.073092699,20250904112733552,None,6,229.87901306152344,0,0,-1,2,-3,-3,-3,-3,1756999653551800012
0,2.07321167,20250904112733552,None,6,229.87901306152344,-1,0,0,-1,-2,0,-2,0,1756999653551945686
0,2.080575943,20250904112733559,None,6,231.3068389892578,-1,-3,-4,-1,-4,-9,-14,-7,1756999653559335470
0,2.080694437,20250904112733559,None,6,231.3068389892578,1,-2,1,-1,0,4,14,3,1756999653559473037
0,2.088107109,20250904112733567,None,6,230.35494995117188,0,-2,-1,-2,-2,-3,-6,2,1756999653566851615
0,2.088222027,20250904112733567,None,6,230.35494995117188,-3,-3,0,0,-1,3,6,-2,1756999653566986322
0,2.103172064,20250904112733582,None,6,230.35494995117188,-2,2,-1,0,1,-1,5,2,1756999653581883192
0,2.103333712,20250904112733582,None,6,230.35494995117188,-1,-3,-1,0,-4,-2,-11,-4,1756999653582046031
0,2.110532522,20250904112733589,None,6,230.59292602539062,2,-1,1,-1,1,-2,0,5,1756999653589336156
0,2.11062336,20250904112733589,None,6,230.59292602539062,-2,-1,0,-1,-1,5,9,-1,1756999653589464426
0,2.118084192,20250904112733597,None,6,229.87901306152344,0,1,1,0,-2,-1,-3,-3,1756999653596845149
0,2.11817193,20250904112733597,None,6,229.87901306152344,1,0,-2,1,-1,-3,-6,-5,1756999653596983909
0,2.1331157689999998,20250904112733612,None,6,229.87901306152344,-1,-1,1,-2,-3,2,6,0,1756999653611830949
0,2.133240223,20250904112733612,None,6,229.87901306152344,-1,-2,0,-2,-2,-4,-3,-5,1756999653612014532
0,2.140499354,20250904112733619,None,6,229.87901306152344,-3,-1,0,0,-3,-6,-11,-4,1756999653619295597
0,2.140616655,20250904112733619,None,6,229.87901306152344,1,-1,-1,-3,1,6,12,5,1756999653619409322
0,2.148549318,20250904112733627,None,6,231.3068389892578,0,-3,-4,0,0,-3,-4,1,1756999653626865863
0,2.148873091,20250904112733627,None,6,231.3068389892578,2,-3,-2,0,-1,-1,0,0,1756999653627138376
0,2.163053036,20250904112733642,None,6,231.3068389892578,-4,-2,1,0,1,0,-7,-3,1756999653641800880
0,2.163143635,20250904112733642,None,6,231.3068389892578,1,3,0,-3,-1,-1,-4,-5,1756999653641928911
0,2.170587301,20250904112733649,None,6,230.1169891357422,2,-1,2,4,2,0,-2,-1,1756999653649358749
0,2.170716047,20250904112733649,None,6,230.1169891357422,-3,0,0,-1,-3,-5,-7,0,1756999653649501323
0,2.177999973,20250904112733656,None,6,230.1169891357422,-1,-1,3,1,0,1,4,1,1756999653656795740
0,2.178135634,20250904112733657,None,6,230.83090209960938,-1,-2,-2,-1,1,2,9,5,1756999653656917572
0,2.1932072639999998,20250904112733672,None,6,230.83090209960938,-1,-1,1,1,-1,5,7,-1,1756999653671923875
0,2.193305969,20250904112733672,None,6,230.83090209960938,2,1,-1,0,-2,-4,-4,-1,1756999653672104120
0,2.200509548,20250904112733679,None,6,230.35494995117188,2,1,-1,0,-1,1,10,0,1756999653679275512
0,2.200621128,20250904112733679,None,6,230.35494995117188,0,-4,-1,0,0,-2,6,2,1756999653679400205
0,2.207900047,20250904112733686,None,6,231.5447998046875,-3,-2,-1,0,-2,-8,-11,-2,1756999653686701297
0,2.20796442,20250904112733686,None,6,231.5447998046875,1,-2,-2,-1,1,-2,-6,-5,1756999653686823606
0,2.223196745,20250904112733702,None,6,230.1169891357422,-1,-3,-1,-1,-1,-1,3,-3,1756999653701925039
0,2.223318577,20250904112733702,None,6,230.1169891357422,-1,-2,-1,-3,-2,-1,-3,2,1756999653702090978
0,2.230629206,20250904112733709,None,6,231.78277587890625,-3,2,-1,1,-1,0,-2,-3,1756999653709392547
0,2.230707407,20250904112733709,None,6,231.78277587890625,2,2,0,-2,-3,-8,-17,-2,1756999653709558725
0,2.238061905,20250904112733717,None,6,229.87901306152344,2,-1,-1,1,0,9,18,1,1756999653716830492
0,2.238149405,20250904112733717,None,6,229.87901306152344,3,-1,1,2,1,-3,-6,1,1756999653716965675
0,2.252984285,20250904112733731,None,6,230.35494995117188,0,0,-3,0,-2,0,2,3,1756999653731738567
0,2.253081799,20250904112733732,None,6,230.35494995117188,-3,0,-1,-1,1,-1,-2,-2,1756999653731856107
0,2.260619164,20250904112733739,None,6,230.35494995117188,-4,-2,0,-2,-1,-2,-4,-2,1756999653739337444
0,2.260737181,20250904112733739,None,6,230.35494995117188,-1,1,1,1,-1,-2,0,-3,1756999653739469289
0,2.268131256,20250904112733747,None,6,230.83090209960938,-1,-1,0,-1,-2,-4,-1,-2,1756999653746860504
0,2.268215418,20250904112733747,None,6,230.83090209960938,-1,-1,1,0,-2,1,-9,-4,1756999653747039556
0,2.283252716,20250904112733762,None,6,230.1169891357422,-1,2,0,1,-2,-1,-1,6,1756999653761907100
0,2.283422232,20250904112733762,None,6,230.1169891357422,-1,-3,-1,0,1,6,12,3,1756999653762063026
0,2.290589333,20250904112733769,None,6,231.5447998046875,-1,1,-2,0,0,1,-2,-9,1756999653769352674
0,2.290709972,20250904112733769,None,6,231.5447998046875,0,0,-4,3,-3,0,0,-4,1756999653769484043
0,2.298177481,20250904112733777,None,6,229.87901306152344,-2,-1,0,0,-2,-7,-26,-7,1756999653776890993
0,2.29831934,20250904112733777,None,6,229.87901306152344,-3,-2,-1,-1,-1,5,12,5,1756999653777036905
0,2.313040018,20250904112733792,None,6,231.5447998046875,-1,0,-1,-3,-4,-2,7,1,1756999653791785717
0,2.313141346,20250904112733792,None,6,231.5447998046875,-2,-2,-3,-1,1,-1,-4,-1,1756999653791926622
0,2.320560217,20250904112733799,None,6,230.1169891357422,-6,-3,-3,0,0,0,-2,-1,1756999653799349784
0,2.3206923010000002,20250904112733799,None,6,230.1169891357422,-2,-2,-1,1,-1,-7,-7,-3,1756999653799487829
0,2.335644484,20250904112733814,None,6,230.35494995117188,3,-1,0,-1,0,1,4,1,1756999653814363718
0,2.335807085,20250904112733814,None,6,230.35494995117188,-1,-2,-1,-1,-4,-4,-3,0,1756999653814524412
0,2.343119621,20250904112733822,None,6,230.35494995117188,0,-1,-3,-1,0,-4,-7,-6,1756999653821855068
0,2.343461275,20250904112733822,None,6,230.83090209960938,-3,1,-3,-2,1,3,5,0,1756999653821992874
0,2.350552321,20250904112733829,None,6,230.83090209960938,0,0,1,-1,-1,-13,-26,-10,1756999653829320669
0,2.350669384,20250904112733829,None,6,230.83090209960938,1,-3,0,0,-2,12,30,8,1756999653829430341
0,2.365580797,20250904112733844,None,6,230.59292602539062,-4,-1,-1,0,2,0,3,-1,1756999653844321489
0,2.365716934,20250904112733844,None,6,230.59292602539062,-1,-3,0,0,1,1,0,0,1756999653844456195
0,2.372985363,20250904112733851,None,6,231.3068389892578,-5,-2,2,-1,-5,-4,-11,-3,1756999653851761579
0,2.373091459,20250904112733852,None,6,231.3068389892578,1,-1,1,0,2,-2,8,0,1756999653851879835
0,2.3805236819999998,20250904112733859,None,6,230.1169891357422,1,0,-1,0,2,3,1,0,1756999653859286546
0,2.380652428,20250904112733859,None,6,230.1169891357422,-2,-2,-1,-2,-3,-8,-20,-5,1756999653859404802
0,2.403762579,20250904112733882,None,6,229.87901306152344,0,0,1,-3,-1,6,11,2,1756999653882493972
0,2.403886557,20250904112733882,None,6,229.87901306152344,-2,-4,-1,-1,1,2,2,-1,1756999653882634162
0,2.404456377,20250904112733883,None,6,229.87901306152344,-3,-1,2,-3,2,-5,-7,0,1756999653883280038
0,2.404538393,20250904112733883,None,6,229.87901306152344,0,-3,-1,-1,-1,-2,-10,-7,1756999653883388042
0,2.410516262,20250904112733889,None,6,231.5447998046875,-2,-1,-1,1,-1,5,5,-3,1756999653889311075
0,2.410625935,20250904112733889,None,6,231.5447998046875,1,1,-2,0,3,2,18,3,1756999653889436960
0,2.425540686,20250904112733904,None,6,230.35494995117188,1,-1,1,0,0,-5,-10,-3,1756999653904303550
0,2.425656557,20250904112733904,None,6,230.35494995117188,1,1,1,0,-2,3,6,0,1756999653904437541
0,2.433035612,20250904112733912,None,6,230.83090209960938,0,-1,-3,0,1,-1,-2,0,1756999653911790132
0,2.43317461,20250904112733912,None,6,230.83090209960938,-2,-3,-2,-3,-4,-3,-5,-4,1756999653911907434
0,2.440527201,20250904112733919,None,6,230.83090209960938,2,-1,-1,1,2,-3,-8,2,1756999653919308900
0,2.440637112,20250904112733919,None,6,230.83090209960938,-2,-1,-2,-2,-5,-1,8,0,1756999653919444084
0,2.455752373,20250904112733934,None,6,231.3068389892578,-1,-1,-1,-2,1,-2,4,1,1756999653934478044
0,2.455902338,20250904112733934,None,6,231.3068389892578,0,-6,0,1,0,-3,-2,-1,1756999653934623718
0,2.463034392,20250904112733942,None,6,231.3068389892578,-4,-1,0,-2,1,-6,-2,-3,1756999653941812753
0,2.463114739,20250904112733942,None,6,231.3068389892578,1,-1,0,-1,0,-3,-4,1,1756999653941965579
0,2.470534802,20250904112733949,None,6,230.1169891357422,0,1,0,1,4,1,-1,-4,1756999653949277639
0,2.470778465,20250904112733949,None,6,230.1169891357422,-2,-1,-2,3,-1,0,0,3,1756999653949386358
0,2.485542774,20250904112733964,None,6,229.87901306152344,-1,0,0,-2,-1,3,4,-2,1756999653964317083
0,2.485648394,20250904112733964,None,6,229.87901306152344,1,-3,1,-1,0,2,0,2,1756999653964454174
0,2.493008137,20250904112733971,None,6,231.5447998046875,0,0,-1,-3,-1,-4,-2,1,1756999653971775770
0,2.493141413,20250904112733972,None,6,231.5447998046875,2,-2,-2,-2,-3,0,1,-4,1756999653971918582
0,2.500472784,20250904112733979,None,6,231.5447998046875,0,0,-4,0,0,-2,-9,-3,1756999653979277849
0,2.5005724430000003,20250904112733979,None,6,231.5447998046875,-2,-5,0,-1,-1,2,11,-3,1756999653979402303
0,2.515592337,20250904112733994,None,6,231.06886291503906,1,0,-1,-2,0,0,-1,1,1756999653994335412
0,2.515697003,20250904112733994,None,6,231.06886291503906,-1,-3,-2,0,-1,-2,-6,-2,1756999653994489908
0,2.523087502,20250904112734002,None,6,230.59292602539062,0,-2,-1,1,-2,0,7,5,1756999654001865625
0,2.523190737,20250904112734002,None,6,230.59292602539062,1,-2,1,-1,1,-3,-6,-1,1756999654002000331
0,2.530519009,20250904112734009,None,6,230.35494995117188,-2,0,-2,-2,-1,-8,-15,0,1756999654009315490
0,2.530630112,20250904112734009,None,6,230.35494995117188,2,1,0,1,-1,4,11,0,1756999654009447097
0,2.545564175,20250904112734024,None,6,231.06886291503906,-2,1,-4,-1,-1,-4,-6,-2,1756999654024341821
0,2.545678616,20250904112734024,None,6,231.06886291503906,0,-1,-4,-1,2,-1,-2,1,1756999654024492502
0,2.55305481,20250904112734032,None,6,229.87901306152344,0,-2,-2,1,0,1,1,-3,1756999654031802892
0,2.553146362,20250904112734032,None,6,229.87901306152344,1,-3,1,-1,-4,-3,-10,-6,1756999654031955718
0,2.560581446,20250904112734039,None,6,231.3068389892578,4,-2,1,-1,1,0,3,1,1756999654039300441
0,2.56071806,20250904112734039,None,6,231.3068389892578,-2,-1,1,2,-3,2,-3,2,1756999654039446592
0,2.575690985,20250904112734054,None,6,231.5447998046875,-2,-2,-2,1,-3,-5,-13,-7,1756999654054338216
0,2.575857639,20250904112734054,None,6,231.5447998046875,0,1,1,-1,3,-1,5,3,1756999654054468870
0,2.58301115,20250904112734061,None,6,231.5447998046875,-2,2,-2,3,-2,7,15,1,1756999654061782360
0,2.583132267,20250904112734062,None,6,231.5447998046875,-1,-3,0,-3,0,-2,-1,-4,1756999654061891317
0,2.590566874,20250904112734069,None,6,230.35494995117188,-2,-4,-1,0,1,1,2,4,1756999654069355010
0,2.590665817,20250904112734069,None,6,230.35494995117188,0,-1,-4,-3,0,-1,-2,-2,1756999654069466829
0,2.605517387,20250904112734084,None,6,230.35494995117188,2,4,-2,1,-1,-3,-6,3,1756999654084281921
0,2.60562563,20250904112734084,None,6,230.35494995117188,1,0,-3,-4,-1,-7,-15,-6,1756999654084394931
0,2.613003016,20250904112734091,None,6,230.35494995117188,-1,1,-1,-2,0,7,17,2,1756999654091769695
0,2.613095522,20250904112734092,None,6,230.35494995117188,2,-2,0,-2,-3,0,7,3,1756999654091899156
0,2.62048316,20250904112734099,None,6,230.35494995117188,2,-2,-2,0,-1,-5,-8,-4,1756999654099289655
0,2.62056756,20250904112734099,None,6,230.35494995117188,0,-3,-3,-2,-1,-2,-3,-1,1756999654099405765
0,2.643737316,20250904112734122,None,6,231.3068389892578,-1,-1,-1,-1,1,-1,-3,0,1756999654122438430
0,2.643879652,20250904112734122,None,6,231.3068389892578,0,1,-3,-1,0,-2,-8,-3,1756999654122571468
0,2.644402027,20250904112734123,None,6,231.3068389892578,0,1,-1,0,-3,-1,4,3,1756999654123233318
0,2.6445133690000002,20250904112734123,None,6,231.3068389892578,0,2,-2,-1,0,-3,-2,-4,1756999654123334884
0,2.65046382,20250904112734129,None,6,230.1169891357422,0,-1,-1,-2,0,-5,-14,-6,1756999654129274368
0,2.650571823,20250904112734129,None,6,230.1169891357422,-4,1,-1,-3,0,-3,-3,-7,1756999654129397392
0,2.665590525,20250904112734144,None,6,231.5447998046875,0,0,0,0,0,7,8,4,1756999654144364356
0,2.66568923,20250904112734144,None,6,231.5447998046875,0,0,-4,-3,-2,6,15,4,1756999654144495725
0,2.673008919,20250904112734151,None,6,229.87901306152344,0,-1,1,-1,-2,0,2,1,1756999654151798963
0,2.673095942,20250904112734152,None,6,229.87901306152344,-1,-1,-2,0,-2,-3,-12,-1,1756999654151916503
0,2.68051815,20250904112734159,None,6,231.06886291503906,0,0,-3,-1,-1,4,10,1,1756999654159341573
0,2.680617809,20250904112734159,None,6,231.06886291503906,-3,1,1,2,0,-3,-7,-1,1756999654159461975
0,2.69559741,20250904112734174,None,6,230.59292602539062,-1,-4,-3,-4,-4,-7,-15,-6,1756999654174338817
0,2.695745468,20250904112734174,None,6,230.59292602539062,0,2,0,1,-1,0,11,1,1756999654174478769
0,2.70301795,20250904112734181,None,6,230.83090209960938,-1,2,-1,-2,-3,-4,-7,-1,1756999654181805133
0,2.703100443,20250904112734182,None,6,230.83090209960938,0,-3,0,-3,0,1,0,-2,1756999654181928634
0,2.710505962,20250904112734189,None,6,230.83090209960938,0,1,0,-1,-1,-2,0,-2,1756999654189285516
0,2.710639954,20250904112734189,None,6,230.83090209960938,0,-2,-2,-2,1,0,-1,-3,1756999654189389467
0,2.725622177,20250904112734204,None,6,231.3068389892578,0,0,-1,1,-1,0,-1,1,1756999654204358816
0,2.72577858,20250904112734204,None,6,231.3068389892578,-6,-3,-1,-2,-2,-3,-7,-2,1756999654204488277
0,2.733142853,20250904112734212,None,6,229.64105224609375,-1,-1,-3,-4,-1,-3,0,0,1756999654211861610
0,2.733291388,20250904112734212,None,6,229.64105224609375,0,2,0,-2,-2,-1,2,0,1756999654211997509
0,2.740538359,20250904112734219,None,6,231.5447998046875,-3,0,1,-1,3,-4,-9,-2,1756999654219346284
0,2.740628958,20250904112734219,None,6,231.5447998046875,-2,-3,-2,-1,-2,1,4,-2,1756999654219456672
0,2.7556200029999998,20250904112734234,None,6,229.87901306152344,1,-1,1,2,0,3,8,3,1756999654234305620
0,2.755792141,20250904112734234,None,6,229.87901306152344,-2,-2,-2,-1,-2,-3,-4,-4,1756999654234424114
0,2.763000488,20250904112734241,None,6,231.3068389892578,-1,-1,-5,-3,-2,-5,-1,-4,1756999654241782665
0,2.763092518,20250904112734242,None,6,231.3068389892578,0,2,-1,-3,0,-9,-14,-6,1756999654241894006
0,2.770534992,20250904112734249,None,6,229.87901306152344,0,0,2,-4,-2,8,12,6,1756999654249290704
0,2.770642519,20250904112734249,None,6,229.87901306152344,1,1,0,-1,-1,-2,-3,-1,1756999654249399900
0,2.785589218,20250904112734264,None,6,230.83090209960938,-4,-1,0,-1,0,-1,-2,-3,1756999654264364004
0,2.785690308,20250904112734264,None,6,230.83090209960938,0,2,1,1,0,4,1,-4,1756999654264496326
0,2.793034315,20250904112734272,None,6,230.59292602539062,1,-2,-1,-2,-1,-5,-15,-2,1756999654271831274
0,2.793119669,20250904112734272,None,6,230.59292602539062,-1,-2,-2,1,-2,2,3,1,1756999654271945714
0,2.800606966,20250904112734279,None,6,229.87901306152344,3,0,0,0,0,7,20,5,1756999654279374122
0,2.800700665,20250904112734279,None,6,229.87901306152344,-5,-5,-1,-3,-1,-3,-5,0,1756999654279503345
0,2.81582284,20250904112734294,None,6,229.87901306152344,-1,0,-3,0,-1,-1,-2,-1,1756999654294312953
0,2.816048384,20250904112734295,None,6,229.87901306152344,2,0,1,-3,-2,-5,-10,-3,1756999654294440269
0,2.823336125,20250904112734302,None,6,229.87901306152344,1,-3,-1,-2,-1,0,1,-3,1756999654301797151
0,2.823562622,20250904112734302,None,6,231.3068389892578,-3,-3,-2,-2,0,-3,-3,-4,1756999654301908493
0,2.8305892950000002,20250904112734309,None,6,231.3068389892578,-2,-1,-1,-2,1,-4,-4,-2,1756999654309289693
0,2.830769777,20250904112734309,None,6,231.3068389892578,1,0,0,2,-1,4,13,5,1756999654309467315
0,2.8456823829999998,20250904112734324,None,6,231.3068389892578,2,-1,-3,-1,0,-7,-10,-3,1756999654324392557
0,2.845794678,20250904112734324,None,6,231.3068389892578,1,0,1,-1,1,2,10,4,1756999654324573516
0,2.853033066,20250904112734332,None,6,230.35494995117188,-5,-3,0,-2,-4,-2,-9,-6,1756999654331808328
0,2.853125811,20250904112734332,None,6,230.35494995117188,0,-2,-2,-3,0,2,0,1,1756999654331949234
0,2.860579014,20250904112734339,None,6,231.06886291503906,-2,2,1,0,-1,1,5,1,1756999654339371204
0,2.860653162,20250904112734339,None,6,231.06886291503906,0,-3,-3,-2,-2,-6,-5,-2,1756999654339511871
0,2.875633955,20250904112734354,None,6,231.06886291503906,-1,-1,-2,0,2,2,6,-5,1756999654354365348
0,2.875752449,20250904112734354,None,6,231.06886291503906,1,0,0,0,3,0,4,4,1756999654354515552
0,2.883085728,20250904112734362,None,6,230.1169891357422,0,0,-1,0,-1,-4,-4,-1,1756999654361838817
0,2.883189678,20250904112734362,None,6,230.1169891357422,3,1,1,0,-1,-10,-17,-5,1756999654361979961
0,2.890609026,20250904112734369,None,6,231.3068389892578,0,-1,3,0,3,8,10,3,1756999654369395494
0,2.890714407,20250904112734369,None,6,231.3068389892578,-1,-1,-2,1,-2,-5,-2,-1,1756999654369550704
0,2.905596972,20250904112734384,None,6,229.87901306152344,2,-1,-2,-2,1,3,7,-1,1756999654384339570
0,2.9058089259999997,20250904112734384,None,6,229.87901306152344,-4,0,-1,0,-4,-9,-21,-7,1756999654384612798
0,2.913448095,20250904112734392,None,6,231.78277587890625,-1,-4,-3,2,1,6,16,4,1756999654392166376
0,2.913575888,20250904112734392,None,6,231.78277587890625,5,-1,0,-3,0,-5,1,3,1756999654392401933
0,2.920962095,20250904112734399,None,6,229.64105224609375,1,2,2,3,0,2,5,2,1756999654399672508
0,2.9210362439999997,20250904112734400,None,6,229.64105224609375,0,-1,1,1,-3,-2,-6,-3,1756999654399866819
0,2.9360699649999997,20250904112734415,None,6,229.87901306152344,0,-2,0,1,-2,-11,-17,-6,1756999654414758205
0,2.936201811,20250904112734415,None,6,229.87901306152344,-2,-2,0,-2,-2,2,7,1,1756999654415013313
0,2.943407536,20250904112734422,None,6,229.87901306152344,1,-2,1,-4,0,-3,-11,-5,1756999654422126293
0,2.9435255529999997,20250904112734422,None,6,229.87901306152344,-1,-1,0,0,0,3,13,0,1756999654422361850
0,2.950956106,20250904112734429,None,6,230.83090209960938,1,-2,0,-1,-2,1,-3,0,1756999654429682493
0,2.951053381,20250904112734430,None,6,230.83090209960938,0,-2,-2,-2,1,0,7,3,1756999654429885864
0,2.9659922119999997,20250904112734444,None,6,230.59292602539062,-2,-1,0,-1,-1,-9,-19,-5,1756999654444679260
0,2.966120005,20250904112734445,None,6,230.59292602539062,-1,4,0,0,0,-3,-8,1,1756999654444877386
0,2.973609209,20250904112734452,None,6,231.06886291503906,3,0,0,-3,-1,3,-1,-6,1756999654452268123
0,2.973739386,20250904112734452,None,6,231.06886291503906,1,0,0,0,3,1,16,4,1756999654452490806
0,2.981039286,20250904112734460,None,6,230.1169891357422,0,0,-2,2,-1,-1,-3,2,1756999654459764242
0,2.981142283,20250904112734460,None,6,230.1169891357422,0,0,-3,0,-1,0,-5,-5,1756999654459971666
0,3.012363911,20250904112734491,None,6,231.3068389892578,-3,1,1,-1,-1,-7,-13,-7,1756999654491036415
0,3.012503147,20250904112734491,None,6,231.3068389892578,-2,1,-1,0,-3,-4,-5,-1,1756999654491275310
0,3.013071299,20250904112734492,None,6,231.3068389892578,-1,-1,-1,-3,2,6,14,2,1756999654491847753
0,3.013174057,20250904112734492,None,6,231.3068389892578,1,-2,1,-3,1,0,2,0,1756999654492005348
0,3.013748646,20250904112734492,None,6,231.3068389892578,2,-3,0,-1,1,1,6,1,1756999654492543697
0,3.01384449,20250904112734492,None,6,231.3068389892578,0,-2,-2,-4,-4,-4,-1,2,1756999654492683887
0,3.025986433,20250904112734504,None,6,230.1169891357422,1,-2,-3,-3,-2,-5,-16,-4,1756999654504687786
0,3.026102305,20250904112734505,None,6,230.1169891357422,-2,2,0,-2,1,7,10,0,1756999654504898071
0,3.033387423,20250904112734512,None,6,231.06886291503906,-1,2,-1,-1,0,1,1,-4,1756999654512036323
0,3.033529043,20250904112734512,None,6,231.06886291503906,-3,0,1,0,-2,-1,-5,-1,1756999654512238502
0,3.040914774,20250904112734519,None,6,230.83090209960938,-1,-4,-2,0,0,0,-6,-2,1756999654519615650
0,3.041017532,20250904112734519,None,6,230.83090209960938,-4,-2,-6,-1,-4,-8,-16,-5,1756999654519782066
0,3.055560589,20250904112734534,None,6,230.59292602539062,1,2,3,1,-1,4,17,10,1756999654534311771
0,3.055672646,20250904112734534,None,6,230.59292602539062,-1,-1,2,1,1,-1,-8,-3,1756999654534469842
0,3.06300354,20250904112734541,None,6,230.59292602539062,-5,-1,-4,-3,-6,-9,-15,-6,1756999654541782617
0,3.063104153,20250904112734542,None,6,230.59292602539062,-1,1,-2,-2,0,4,11,1,1756999654541908025
0,3.07053256,20250904112734549,None,6,229.87901306152344,2,0,1,-3,-1,2,8,5,1756999654549321651
0,3.070635796,20250904112734549,None,6,229.87901306152344,-1,-1,0,-3,0,1,1,-1,1756999654549484491
0,3.085505486,20250904112734564,None,6,229.64105224609375,1,0,-4,0,1,1,8,1,1756999654564302444
0,3.085602999,20250904112734564,None,6,229.64105224609375,-1,-5,-2,1,-1,-3,-2,-3,1756999654564427852
0,3.092996359,20250904112734571,None,6,231.5447998046875,0,-1,3,0,-1,-3,-15,-4,1756999654571785211
0,3.093104601,20250904112734572,None,6,231.5447998046875,1,-4,-3,-3,-3,3,11,3,1756999654571911334
0,3.100637198,20250904112734579,None,6,229.87901306152344,-3,-4,-4,-3,-2,-3,-8,-5,1756999654579420089
0,3.100773335,20250904112734579,None,6,229.87901306152344,-4,-1,-4,-1,-3,-1,-8,-5,1756999654579608201
0,3.123858214,20250904112734602,None,6,230.35494995117188,1,1,-1,0,-1,-1,-2,2,1756999654602550745
0,3.123980045,20250904112734602,None,6,230.35494995117188,-3,-1,-1,-2,-2,-5,-11,-5,1756999654602713346
0,3.124475718,20250904112734603,None,6,230.35494995117188,3,-1,0,-5,1,2,14,3,1756999654603275060
0,3.124598026,20250904112734603,None,6,230.35494995117188,-1,1,-6,-2,-2,0,-3,-3,1756999654603426456
0,3.130512476,20250904112734609,None,6,230.59292602539062,-1,3,-3,-1,-1,-7,-10,-4,1756999654609304904
0,3.130630493,20250904112734609,None,6,230.59292602539062,1,0,3,1,0,2,5,-1,1756999654609435319
0,3.145655155,20250904112734624,None,6,230.83090209960938,0,-3,1,0,0,-1,-5,-2,1756999654624387264
0,3.14586544,20250904112734624,None,6,230.35494995117188,-1,-2,-3,2,-3,0,5,6,1756999654624592065
0,3.153148651,20250904112734632,None,6,230.35494995117188,-1,-5,-1,-3,-1,-6,-19,-5,1756999654631880044
0,3.153249979,20250904112734632,None,6,230.35494995117188,-1,0,0,1,0,3,9,-1,1756999654632023334
0,3.160523892,20250904112734639,None,6,231.3068389892578,3,-2,1,1,0,4,8,2,1756999654639316082
0,3.1606006620000002,20250904112734639,None,6,231.3068389892578,-1,-1,1,-1,-2,-4,-9,-6,1756999654639442443
0,3.175841808,20250904112734654,None,6,231.06886291503906,-3,-2,-2,0,-1,-2,-6,-4,1756999654654500246
0,3.175964117,20250904112734654,None,6,231.06886291503906,-3,-2,-1,-2,-2,-4,1,-2,1756999654654708147
0,3.183091879,20250904112734662,None,6,229.87901306152344,-1,-1,-1,-2,1,-1,-4,-5,1756999654661796331
0,3.183213472,20250904112734662,None,6,229.87901306152344,1,0,2,1,-2,-2,-1,-3,1756999654661946296
0,3.190488339,20250904112734669,None,6,229.87901306152344,0,1,-2,-1,2,1,10,1,1756999654669283390
0,3.190603018,20250904112734669,None,6,229.87901306152344,0,-1,-1,-2,-3,-2,3,2,1756999654669394731
0,3.20570159,20250904112734684,None,6,230.1169891357422,-1,3,-1,-1,-1,-1,-4,-2,1756999654684442996
0,3.205806017,20250904112734684,None,6,230.1169891357422,-3,-3,-1,-2,-1,-1,-3,-3,1756999654684578657
0,3.212960959,20250904112734691,None,6,230.1169891357422,1,-2,1,-2,1,-2,-3,-3,1756999654691745042
0,3.213077545,20250904112734692,None,6,230.1169891357422,1,-1,-1,1,-1,-6,4,-2,1756999654691866159
0,3.220799685,20250904112734699,None,6,230.83090209960938,2,3,-2,2,0,0,-1,3,1756999654699317216
0,3.220972061,20250904112734699,None,6,230.83090209960938,1,-1,0,-1,-2,2,2,-5,1756999654699498653
0,3.235714436,20250904112734714,None,6,229.87901306152344,-2,0,-1,-1,-2,1,8,2,1756999654714275836
0,3.235849619,20250904112734714,None,6,229.87901306152344,1,-4,-1,-1,-2,-3,-7,-2,1756999654714390754
0,3.243298292,20250904112734722,None,6,231.06886291503906,-2,-1,-2,-1,-1,-3,-4,-3,1756999654721754550
0,3.243642807,20250904112734722,None,6,231.06886291503906,-1,3,0,-2,-1,0,6,1,1756999654721886396
0,3.257979155,20250904112734736,None,6,231.3068389892578,-1,2,0,0,-1,-4,-12,0,1756999654736761093
0,3.258074999,20250904112734737,None,6,231.3068389892578,3,2,-1,1,-2,5,7,1,1756999654736871719
0,3.265558243,20250904112734744,None,6,231.3068389892578,1,-1,-2,-2,-6,-6,-8,-3,1756999654744322776
0,3.265670538,20250904112734744,None,6,231.3068389892578,-1,2,-2,-2,0,0,8,2,1756999654744447469
0,3.273174286,20250904112734752,None,6,229.403076171875,-2,-1,0,0,0,-2,1,-1,1756999654751828432
0,3.273356438,20250904112734752,None,6,229.403076171875,-1,0,0,2,-2,2,0,-1,1756999654752012491
0,3.288152456,20250904112734767,None,6,229.87901306152344,1,0,-1,-5,-2,-4,-9,1,1756999654766831874
0,3.288327217,20250904112734767,None,6,229.87901306152344,0,-1,0,0,-4,-1,1,0,1756999654766999006
0,3.295620442,20250904112734774,None,6,230.83090209960938,0,1,-3,-4,0,0,0,-1,1756999654774313211
0,3.295761824,20250904112734774,None,6,230.83090209960938,0,-2,-2,4,1,-1,-2,-1,1756999654774455785
0,3.3030331139999998,20250904112734782,None,6,230.83090209960938,2,0,0,2,-1,0,-3,-1,1756999654781780004
0,3.303156614,20250904112734782,None,6,230.83090209960938,1,-2,0,-3,-4,-6,-8,-3,1756999654781922101
0,3.318155289,20250904112734797,None,6,230.1169891357422,2,0,-1,2,0,4,5,0,1756999654796847581
0,3.318309784,20250904112734797,None,6,230.1169891357422,-1,-2,1,4,4,2,8,-1,1756999654797008275
0,3.3255915639999998,20250904112734804,None,6,231.06886291503906,1,2,-2,-3,-1,0,-1,0,1756999654804360151
0,3.3257274629999998,20250904112734804,None,6,231.06886291503906,-1,-3,-2,-4,0,-4,-9,-1,1756999654804487466
0,3.333087683,20250904112734812,None,6,229.64105224609375,-2,-2,1,0,1,4,1,0,1756999654811817407
0,3.333181381,20250904112734812,None,6,229.64105224609375,-3,-1,1,-1,-3,-2,-2,-4,1756999654811951160
0,3.347890139,20250904112734826,None,6,231.3068389892578,-1,1,-1,-1,-4,-5,-8,-1,1756999654826671123
0,3.347964525,20250904112734826,None,6,231.3068389892578,-1,-3,1,1,0,0,6,2,1756999654826785564
0,3.355423689,20250904112734834,None,6,229.64105224609375,-3,-1,3,-2,2,1,5,0,1756999654834208488
0,3.355500221,20250904112734834,None,6,229.64105224609375,-2,-2,0,-1,-1,0,1,0,1756999654834338903
0,3.3630022999999998,20250904112734841,None,6,231.06886291503906,-4,-1,-2,-4,-4,-1,-1,-2,1756999654841764211
0,3.363117695,20250904112734842,None,6,231.06886291503906,-4,-3,0,0,-4,-2,-5,-1,1756999654841897964
0,3.378153563,20250904112734857,None,6,230.83090209960938,-1,1,2,-1,-1,-2,-3,-2,1756999654856863021
0,3.378332853,20250904112734857,None,6,230.83090209960938,-1,1,-3,-4,0,-1,-2,-2,1756999654857023954
0,3.385629892,20250904112734864,None,6,230.83090209960938,-3,1,0,1,-2,-4,-3,-1,1756999654864346742
0,3.385735035,20250904112734864,None,6,230.83090209960938,-1,2,0,1,4,1,0,-1,1756999654864470005
0,3.393057585,20250904112734872,None,6,230.1169891357422,1,-1,-3,-2,-4,0,0,1,1756999654871839761
0,3.393157959,20250904112734872,None,6,230.1169891357422,0,1,0,-2,2,-2,-1,2,1756999654871967554
0,3.408079386,20250904112734887,None,6,231.3068389892578,-1,-3,0,0,-2,1,0,-3,1756999654886799097
0,3.408303738,20250904112734887,None,6,231.3068389892578,-1,0,-1,0,0,-2,-2,-1,1756999654886934280
0,3.415536881,20250904112734894,None,6,229.87901306152344,-4,0,-1,0,-2,-2,-3,-3,1756999654894310951
0,3.415633679,20250904112734894,None,6,229.87901306152344,-1,-1,-1,0,2,1,-1,-1,1756999654894448995
0,3.423130989,20250904112734902,None,6,229.87901306152344,-1,-3,1,1,4,3,2,-1,1756999654901864767
0,3.423215866,20250904112734902,None,6,229.87901306152344,0,1,1,2,1,-1,0,-2,1756999654902062177
0,3.438070536,20250904112734917,None,6,229.64105224609375,0,-1,2,0,-4,-3,-1,2,1756999654916814565
0,3.438175202,20250904112734917,None,6,229.64105224609375,-2,-2,-2,-4,-4,-4,-4,-3,1756999654916974544
0,3.445540905,20250904112734924,None,6,231.3068389892578,-1,1,-3,2,-2,2,-1,-2,1756999654924301624
0,3.445644379,20250904112734924,None,6,231.3068389892578,1,0,-1,-4,-6,-4,3,2,1756999654924419641
0,3.452970028,20250904112734931,None,6,229.87901306152344,-3,-4,0,0,4,-1,-3,-5,1756999654931711196
0,3.453078032,20250904112734932,None,6,229.87901306152344,1,-1,2,-1,-2,-2,-2,-2,1756999654931821584
0,3.468245745,20250904112734947,None,6,230.83090209960938,1,2,0,1,4,0,0,-3,1756999654946951627
0,3.468413115,20250904112734947,None,6,230.83090209960938,0,-1,1,0,-2,-2,0,-4,1756999654947110414
0,3.4755980969999998,20250904112734954,None,6,230.83090209960938,0,-4,-3,-4,0,-1,2,0,1756999654954278469
0,3.475728989,20250904112734954,None,6,230.83090209960938,3,0,-2,-2,-4,1,-4,0,1756999654954393625
0,3.483001709,20250904112734961,None,6,230.59292602539062,-3,-1,-3,0,1,2,5,1,1756999654961732625
0,3.48309803,20250904112734962,None,6,230.59292602539062,0,-4,-1,2,2,-2,-1,0,1756999654961854934
0,3.498177528,20250904112734977,None,6,229.87901306152344,0,1,-4,-3,-4,0,0,-1,1756999654976862430
0,3.498347521,20250904112734977,None,6,229.87901306152344,-3,3,-2,-4,-2,-2,-3,-2,1756999654977022886
0,3.505792141,20250904112734984,None,6,229.87901306152344,-2,-1,-1,0,-2,-3,-1,-3,1756999654984537839
0,3.505915403,20250904112734984,None,6,229.87901306152344,-2,-1,-1,-1,-1,-2,-1,-3,1756999654984688043
0,3.5130026340000002,20250904112734991,None,6,231.3068389892578,0,0,1,-2,-4,-3,0,-3,1756999654991701364
0,3.513106585,20250904112734992,None,6,231.3068389892578,-1,-1,-1,0,-1,-4,1,1,1756999654991804838
0,3.528100491,20250904112735007,None,6,231.5447998046875,0,1,-1,-1,5,2,1,-4,1756999655006770372
0,3.528245926,20250904112735007,None,6,231.5447998046875,0,-2,-3,-3,-1,0,0,3,1756999655006892204
0,3.535559416,20250904112735014,None,6,230.1169891357422,1,0,0,-2,-4,-2,-3,0,1756999655014272451
0,3.535715342,20250904112735014,None,6,230.1169891357422,-1,0,-1,2,0,-4,-2,0,1756999655014402389
0,3.54301858,20250904112735022,None,6,231.06886291503906,1,-2,2,-5,-2,0,0,0,1756999655021753787
0,3.543150425,20250904112735022,None,6,231.06886291503906,-2,-1,-1,-2,-1,-4,-1,1,1756999655021871328
0,3.558623791,20250904112735037,None,6,230.35494995117188,-4,-2,-6,-1,-1,-2,0,4,1756999655037328958
0,3.558758736,20250904112735037,None,6,230.35494995117188,-2,1,-1,1,-1,-1,-3,-4,1756999655037502527
0,3.565528393,20250904112735044,None,6,230.59292602539062,-4,-1,0,0,2,2,-2,-2,1756999655044312000
0,3.565634012,20250904112735044,None,6,230.59292602539062,-2,-2,0,2,-1,3,0,-2,1756999655044436693
0,3.573272467,20250904112735052,None,6,230.83090209960938,-3,-3,-1,1,-3,-1,-4,0,1756999655052013397
0,3.573337555,20250904112735052,None,6,230.83090209960938,-1,1,2,-2,-2,-2,3,-2,1756999655052191972
0,3.588453293,20250904112735067,None,6,230.1169891357422,0,-1,-2,-3,-2,0,1,-1,1756999655067160844
0,3.588565588,20250904112735067,None,6,230.1169891357422,2,-1,0,0,-1,0,-1,-3,1756999655067388772
0,3.595951796,20250904112735074,None,6,231.3068389892578,0,-5,0,-2,0,0,-2,-1,1756999655074696302
0,3.596086502,20250904112735075,None,6,231.3068389892578,-1,-2,1,-1,-1,-1,0,-1,1756999655074902296
0,3.6034553049999998,20250904112735082,None,6,230.1169891357422,-1,-1,0,-1,-4,-4,-2,-1,1756999655082147359
0,3.60357523,20250904112735082,None,6,230.1169891357422,2,0,0,-4,1,-4,0,-3,1756999655082383155
0,3.618681193,20250904112735097,None,6,230.1169891357422,-2,-3,1,-1,4,-3,-9,-2,1756999655097271203
0,3.618817806,20250904112735097,None,6,230.1169891357422,-2,-4,-3,-1,-4,0,5,-1,1756999655097597599
0,3.62554884,20250904112735104,None,6,231.06886291503906,-3,0,-1,-1,-4,-2,-3,-1,1756999655104333162
0,3.625638723,20250904112735104,None,6,231.06886291503906,-3,-1,3,2,0,2,0,-1,1756999655104457378
0,3.633002997,20250904112735111,None,6,231.06886291503906,0,-2,1,1,-1,-1,0,1,1756999655111784458
0,3.6330931189999998,20250904112735112,None,6,231.06886291503906,-1,-2,-2,-3,-4,-1,-2,-1,1756999655111899375
0,3.648039818,20250904112735127,None,6,230.59292602539062,1,2,-1,-4,-3,-1,-2,-2,1756999655126762866
0,3.648158312,20250904112735127,None,6,230.59292602539062,-2,-1,0,-2,2,-1,0,-2,1756999655126896142
0,3.655524969,20250904112735134,None,6,230.83090209960938,-1,-2,1,0,-2,1,1,-3,1756999655134300231
0,3.655658007,20250904112735134,None,6,230.83090209960938,-1,-1,-3,-1,-2,2,-2,-1,1756999655134432077
0,3.662973881,20250904112735141,None,6,230.83090209960938,0,-1,-1,1,-1,-2,1,-2,1756999655141777515
0,3.663067579,20250904112735142,None,6,230.83090209960938,-1,0,0,-1,-2,-2,0,-2,1756999655141893148
0,3.678043604,20250904112735157,None,6,231.3068389892578,-2,1,-1,2,-1,-2,2,-2,1756999655156780481
0,3.678158283,20250904112735157,None,6,231.3068389892578,-3,-4,-2,0,-1,-3,-4,0,1756999655156896829
0,3.68579793,20250904112735164,None,6,230.1169891357422,-1,-3,-1,2,-1,-1,-2,0,1756999655164524316
0,3.685893059,20250904112735164,None,6,230.1169891357422,0,-3,-2,-5,1,0,-4,0,1756999655164709091
0,3.693007469,20250904112735171,None,6,231.06886291503906,0,-1,-1,1,3,3,1,5,1756999655171792268
0,3.693093062,20250904112735172,None,6,231.06886291503906,-3,-1,-3,0,-3,-4,-3,-1,1756999655171911716
0,3.7080459599999998,20250904112735187,None,6,230.35494995117188,-1,-1,-2,-1,-2,-4,-2,-2,1756999655186815500
0,3.708153486,20250904112735187,None,6,230.35494995117188,1,-2,0,-2,-5,-7,-3,-1,1756999655186947584
0,3.715497971,20250904112735194,None,6,231.5447998046875,1,-1,1,2,4,2,10,1,1756999655194298505
0,3.715572119,20250904112735194,None,6,231.5447998046875,-2,-1,0,-1,-1,1,2,3,1756999655194427967
0,3.7230496410000002,20250904112735202,None,6,230.83090209960938,0,-4,1,0,-3,0,-2,1,1756999655201819419
0,3.723139048,20250904112735202,None,6,230.83090209960938,-1,-1,2,-3,-3,-1,-4,-3,1756999655201956033
0,3.738093853,20250904112735217,None,6,231.5447998046875,-3,-2,1,-1,-1,-2,0,-1,1756999655216861486
0,3.738209486,20250904112735217,None,6,231.5447998046875,1,1,0,-2,-3,-1,-1,1,1756999655217008113
0,3.745490551,20250904112735224,None,6,231.5447998046875,-1,-4,-1,0,1,0,0,-4,1756999655224318027
0,3.745576143,20250904112735224,None,6,231.5447998046875,-3,0,1,1,1,-1,0,-1,1756999655224437713
0,3.752968311,20250904112735231,None,6,230.1169891357422,-1,-3,-2,-4,-4,-3,-1,1,1756999655231794595
0,3.75306797,20250904112735232,None,6,230.1169891357422,1,-1,-3,4,3,2,-1,0,1756999655231916904
0,3.768075705,20250904112735247,None,6,229.64105224609375,0,1,-3,0,1,-1,-3,-1,1756999655246847629
0,3.768160343,20250904112735247,None,6,229.64105224609375,-1,1,-1,-4,0,-3,-4,-1,1756999655247008323
0,3.775437355,20250904112735254,None,6,231.3068389892578,-1,-1,1,-2,-3,-3,2,-1,1756999655254252433
0,3.775504351,20250904112735254,None,6,231.3068389892578,-4,-2,0,-3,-2,-2,0,-2,1756999655254365682
0,3.782896042,20250904112735261,None,6,231.3068389892578,-2,2,-1,-3,-2,1,-1,-2,1756999655261732578
0,3.782971859,20250904112735261,None,6,231.3068389892578,-2,-1,-3,-1,-4,-2,-3,-2,1756999655261843681
0,3.797999382,20250904112735276,None,6,231.3068389892578,0,-1,1,3,6,3,0,1,1756999655276812314
0,3.798084021,20250904112735277,None,6,231.3068389892578,0,1,0,-5,0,3,1,1,1756999655276937723
0,3.805511952,20250904112735284,None,6,230.1169891357422,1,1,0,-1,-2,-2,-2,-2,1756999655284307956
0,3.805699587,20250904112735284,None,6,230.1169891357422,2,-2,-2,1,-4,-3,3,1,1756999655284494161
0,3.813051224,20250904112735292,None,6,230.59292602539062,-2,2,1,0,-3,-3,-1,2,1756999655291832685
0,3.813136578,20250904112735292,None,6,230.59292602539062,1,-1,-3,0,1,1,-3,-1,1756999655291972637
0,3.828010082,20250904112735306,None,6,230.83090209960938,0,-2,-1,-4,-2,-2,-1,-2,1756999655306821346
0,3.8281178479999998,20250904112735307,None,6,230.83090209960938,1,-1,-1,1,-1,0,1,1,1756999655306957006
0,3.835475206,20250904112735314,None,6,230.35494995117188,2,-2,-4,-3,1,-2,0,4,1756999655314281463
0,3.835550308,20250904112735314,None,6,230.35494995117188,1,0,-3,-1,1,1,2,0,1756999655314398765
0,3.843019962,20250904112735321,None,6,231.06886291503906,-2,0,-1,-2,0,-1,3,2,1756999655321792840
0,3.843121767,20250904112735322,None,6,231.06886291503906,0,-1,0,0,0,-2,-2,-5,1756999655321921825
0,3.858031273,20250904112735337,None,6,229.87901306152344,-2,1,1,-1,-2,0,-4,-1,1756999655336818695
0,3.8581216339999997,20250904112735337,None,6,229.87901306152344,-2,-1,0,0,-3,-2,-2,0,1756999655336948633
0,3.865464211,20250904112735344,None,6,231.5447998046875,2,1,-2,1,-1,-2,-3,0,1756999655344285011
0,3.865544081,20250904112735344,None,6,231.5447998046875,-1,0,-1,-3,-1,4,-2,3,1756999655344399929
0,3.87295413,20250904112735351,None,6,229.64105224609375,-2,-4,-2,5,3,1,-1,0,1756999655351768493
0,3.873041868,20250904112735352,None,6,229.64105224609375,2,4,0,1,0,-3,-2,1,1756999655351898670
0,3.888039589,20250904112735367,None,6,230.1169891357422,-1,1,1,-2,-1,0,-3,-3,1756999655366802215
0,3.888142586,20250904112735367,None,6,230.1169891357422,-2,-5,0,0,-4,-1,-2,-3,1756999655366945266
0,3.895538569,20250904112735374,None,6,230.83090209960938,2,1,1,0,-4,-3,-3,-5,1756999655374338626
0,3.895646095,20250904112735374,None,6,230.83090209960938,-1,-1,-2,1,-3,-1,-2,1,1756999655374484300
0,3.902961254,20250904112735381,None,6,230.83090209960938,0,-2,0,0,2,4,9,1,1756999655381756782
0,3.90302968,20250904112735382,None,6,230.83090209960938,1,2,0,-1,2,1,-4,-2,1756999655381890535
0,3.91800952,20250904112735396,None,6,230.35494995117188,-1,-2,-1,3,4,1,3,1,1756999655396782875
0,3.918084145,20250904112735397,None,6,230.35494995117188,0,-1,-3,-5,-4,-4,-2,1,1756999655396922826
0,3.925575018,20250904112735404,None,6,231.3068389892578,1,-1,3,-1,-2,-2,1,-2,1756999655404350757
0,3.925662279,20250904112735404,None,6,231.3068389892578,0,1,-2,-3,-3,-2,-1,0,1756999655404499530
0,3.933008671,20250904112735411,None,6,229.64105224609375,-1,-2,-3,1,0,-1,1,-3,1756999655411806821
0,3.933097839,20250904112735412,None,6,229.64105224609375,0,-2,0,3,2,0,0,-1,1756999655411939144
0,3.94800067,20250904112735426,None,6,231.78277587890625,-4,-2,0,-3,-5,-3,-6,-1,1756999655426778078
0,3.948111296,20250904112735427,None,6,231.78277587890625,-1,1,-1,2,3,0,-1,0,1756999655426919221
0,3.955517292,20250904112735434,None,6,230.1169891357422,1,-1,1,1,4,1,-2,1,1756999655434315204
0,3.95559454,20250904112735434,None,6,230.1169891357422,1,1,1,-3,1,-2,2,1,1756999655434440374
0,3.96297431,20250904112735441,None,6,231.3068389892578,-3,-3,-1,0,1,2,1,-5,1756999655441754817
0,3.963058472,20250904112735442,None,6,231.3068389892578,0,2,-1,-4,-1,1,3,2,1756999655441876649
0,3.97809577,20250904112735457,None,6,231.06886291503906,-4,-2,-2,0,-4,-1,-5,-6,1756999655456841230
0,3.9781975750000003,20250904112735457,None,6,231.06886291503906,0,2,-1,3,2,0,-1,-1,1756999655456981658
0,3.985661745,20250904112735464,None,6,230.59292602539062,-1,1,-1,0,-1,0,-1,0,1756999655464420557
0,3.985754967,20250904112735464,None,6,230.59292602539062,0,-1,0,0,-4,0,-1,-3,1756999655464601516
0,3.9930794240000003,20250904112735472,None,6,230.59292602539062,1,-2,0,0,1,2,-3,1,1756999655471821784
0,3.993171454,20250904112735472,None,6,230.59292602539062,-2,1,-1,-3,4,3,-1,0,1756999655471962451
0,4.008114576,20250904112735487,None,6,231.5447998046875,1,3,0,-4,-2,-2,-1,-2,1756999655486835479
0,4.008245945,20250904112735487,None,6,231.5447998046875,0,2,0,-3,-1,-1,2,-2,1756999655486980199
0,4.01556015,20250904112735494,None,6,230.1169891357422,-2,1,1,3,1,-3,0,-3,1756999655494323492
0,4.015686989,20250904112735494,None,6,230.1169891357422,-3,-3,-1,0,-1,-3,-3,-1,1756999655494446516
0,4.022982121,20250904112735501,None,6,231.3068389892578,1,-1,-1,-2,0,0,1,-2,1756999655501759290
0,4.023100376,20250904112735502,None,6,231.3068389892578,0,1,1,-3,2,0,-3,0,1756999655501883983
0,4.038105965,20250904112735517,None,6,229.87901306152344,-3,-1,1,-1,0,0,1,-3,1756999655516826391
0,4.038252831,20250904112735517,None,6,229.87901306152344,-3,-3,-1,0,-1,1,-2,-3,1756999655516958951
0,4.045569658,20250904112735524,None,6,231.3068389892578,-2,1,-2,-1,0,-2,-3,-2,1756999655524309873
0,4.045715332,20250904112735524,None,6,231.3068389892578,0,-3,-2,-3,-2,-1,0,1,1756999655524435520
0,4.053034783,20250904112735532,None,6,230.1169891357422,0,-2,0,2,0,-1,0,1,1756999655531793832
0,4.053143501,20250904112735532,None,6,230.1169891357422,0,1,-3,-1,2,0,0,-3,1756999655531909942
0,4.068066597,20250904112735547,None,6,231.5447998046875,1,3,2,-2,-6,1,-2,-2,1756999655546761512
0,4.068193436,20250904112735547,None,6,231.5447998046875,-3,-1,-5,0,-2,0,-1,0,1756999655546910285
0,4.075611115,20250904112735554,None,6,230.59292602539062,-3,-3,0,-4,0,-3,-1,-1,1756999655554316282
0,4.075798273,20250904112735554,None,6,230.59292602539062,-1,-1,-1,-1,-1,-2,-3,0,1756999655554518222
0,4.083068133,20250904112735562,None,6,230.35494995117188,-1,0,0,-4,-3,-3,-2,-1,1756999655561836957
0,4.083179712,20250904112735562,None,6,230.35494995117188,1,-1,2,2,3,2,2,-1,1756999655561977624
0,4.098019362,20250904112735576,None,6,230.1169891357422,0,1,-1,-3,-5,0,-1,-2,1756999655576779365
0,4.098115683,20250904112735577,None,6,230.1169891357422,3,0,0,1,2,-2,1,-1,1756999655576913118
0,4.105771303,20250904112735584,None,6,231.78277587890625,-1,0,-3,-2,-2,-1,-2,0,1756999655584508895
0,4.105931044,20250904112735584,None,6,231.78277587890625,1,1,0,-1,-4,-1,-1,1,1756999655584724187
0,4.113100052,20250904112735592,None,6,231.78277587890625,0,-1,1,2,-1,-3,-3,-2,1756999655591836214
0,4.113404036,20250904112735592,None,6,231.78277587890625,0,-3,1,-1,-1,0,-2,-2,1756999655591966152
0,4.128102064,20250904112735607,None,6,231.3068389892578,0,-1,1,-2,-3,-3,2,0,1756999655606827735
0,4.128275633,20250904112735607,None,6,231.3068389892578,-2,-2,-3,3,2,-2,1,-2,1756999655606971979
0,4.135699988,20250904112735614,None,6,230.1169891357422,-4,-2,-4,-4,-2,-5,-2,-2,1756999655614461898
0,4.135797501,20250904112735614,None,6,230.1169891357422,-3,-2,-4,-3,0,-1,-1,0,1756999655614617824
0,4.142869234,20250904112735621,None,6,230.83090209960938,-1,-1,-1,-3,-3,0,-2,-3,1756999655621691942
0,4.142924786,20250904112735621,None,6,230.83090209960938,1,-5,-1,-4,-1,1,0,0,1756999655621811151
0,4.158074617,20250904112735637,None,6,230.35494995117188,-1,-2,-4,-1,0,-1,0,1,1756999655636811971
0,4.15817976,20250904112735637,None,6,230.35494995117188,-1,4,0,2,0,2,1,1,1756999655636956691
0,4.165500879,20250904112735644,None,6,230.35494995117188,-2,-1,0,0,-3,1,1,-4,1756999655644308328
0,4.165594101,20250904112735644,None,6,230.35494995117188,-2,-2,1,-1,2,2,0,-2,1756999655644424200
0,4.173015595,20250904112735651,None,6,230.83090209960938,0,-4,-3,0,-4,-1,-1,0,1756999655651799917
0,4.173101425,20250904112735652,None,6,230.83090209960938,-1,-1,-3,-2,-1,-3,-6,-4,1756999655651922225
0,4.187870503,20250904112735666,None,6,230.1169891357422,1,-3,-1,0,1,1,4,4,1756999655666680335
0,4.187927008,20250904112735666,None,6,230.1169891357422,-1,-2,1,2,0,1,1,-4,1756999655666794538
0,4.195420027,20250904112735674,None,6,231.06886291503906,-3,3,1,-1,-2,-2,-1,-4,1756999655674246072
0,4.195463419,20250904112735674,None,6,231.06886291503906,1,-1,-2,-3,-5,-1,2,1,1756999655674332618
0,4.210621119,20250904112735689,None,6,231.3068389892578,-1,-2,0,1,-2,-1,-1,1,1756999655689369440
0,4.210718155,20250904112735689,None,6,231.3068389892578,1,-2,-1,1,1,0,-4,-3,1756999655689527034
0,4.218009234,20250904112735696,None,6,229.87901306152344,0,-2,-3,-3,-1,0,-1,-1,1756999655696804523
0,4.218096018,20250904112735697,None,6,229.87901306152344,-1,-5,0,-3,-4,-4,-1,-2,1756999655696919441
0,4.2255377769999996,20250904112735704,None,6,229.87901306152344,2,-1,-1,-3,2,-1,0,-4,1756999655704331159
0,4.225622177,20250904112735704,None,6,229.87901306152344,-2,1,-3,-2,3,0,-3,1,1756999655704455614
0,4.240570784,20250904112735719,None,6,230.1169891357422,-1,-1,0,-7,-7,0,-1,0,1756999655719355583
0,4.240675449,20250904112735719,None,6,230.1169891357422,-1,0,-3,2,1,-1,-2,-2,1756999655719479799
0,4.247929096,20250904112735726,None,6,230.83090209960938,-2,0,1,0,1,3,1,-4,1756999655726740598
0,4.248010635,20250904112735726,None,6,230.83090209960938,-2,-4,-1,0,-4,0,-1,-1,1756999655726849079
0,4.255524874,20250904112735734,None,6,230.83090209960938,-2,1,1,0,-3,-2,0,2,1756999655734310865
0,4.255631209,20250904112735734,None,6,230.83090209960938,-1,2,-1,-1,-1,-1,-1,-1,1756999655734428882
0,4.270518065,20250904112735749,None,6,230.35494995117188,-1,0,1,-1,-1,1,-2,1,1756999655749291419
0,4.270643234,20250904112735749,None,6,230.35494995117188,0,0,-3,1,0,-1,-1,-1,1756999655749404430
0,4.278064251,20250904112735757,None,6,231.06886291503906,0,0,-1,-1,-9,-5,-2,-4,1756999655756788015
0,4.278343678,20250904112735757,None,6,231.06886291503906,-1,0,1,2,7,2,0,1,1756999655756899595
0,4.285543919,20250904112735764,None,6,229.87901306152344,-1,0,-1,0,0,-4,2,0,1756999655764334917
0,4.285731554,20250904112735764,None,6,229.87901306152344,1,-1,0,-1,0,0,-3,-3,1756999655764442443
0,4.300498724,20250904112735779,None,6,229.64105224609375,-2,1,1,0,-3,-1,0,-3,1756999655779289484
0,4.300606251,20250904112735779,None,6,229.64105224609375,-1,1,1,0,0,-1,-1,0,1756999655779421091
0,4.308013201,20250904112735786,None,6,229.64105224609375,-1,-2,3,-7,-5,-3,-1,1,1756999655786787986
0,4.308114052,20250904112735787,None,6,229.64105224609375,-2,-4,1,0,6,1,1,0,1756999655786905527
0,4.315508604,20250904112735794,None,6,231.3068389892578,-4,2,-2,-3,3,-2,-4,-2,1756999655794315099
0,4.315603972,20250904112735794,None,6,231.3068389892578,0,-1,-2,-3,-3,-1,1,0,1756999655794437646
0,4.330462456,20250904112735809,None,6,230.83090209960938,1,2,0,-2,-3,1,-3,0,1756999655809262037
0,4.330556154,20250904112735809,None,6,230.83090209960938,2,-4,0,-1,-2,1,2,2,1756999655809382438
0,4.338014364,20250904112735816,None,6,230.35494995117188,1,-2,-2,-2,1,-3,-3,-7,1756999655816806793
0,4.338115692,20250904112735817,None,6,230.35494995117188,1,-3,-1,-3,1,-2,-1,2,1756999655816889286
0,4.345454216,20250904112735824,None,6,230.35494995117188,0,0,-1,-2,1,-1,-1,1,1756999655824274778
0,4.345579147,20250904112735824,None,6,230.35494995117188,-1,0,-2,1,-3,-2,0,1,1756999655824387788
0,4.36041379,20250904112735839,None,6,231.06886291503906,-3,-2,0,1,0,0,-1,0,1756999655839223146
0,4.360481739,20250904112735839,None,6,231.06886291503906,-2,-2,1,0,0,-2,0,-1,1756999655839342117
0,4.36794734,20250904112735846,None,6,229.87901306152344,1,-1,1,1,4,-3,0,0,1756999655846743583
0,4.368024349,20250904112735846,None,6,229.87901306152344,2,0,-1,-3,-3,-1,1,0,1756999655846858263
0,4.383033276,20250904112735862,None,6,229.87901306152344,-2,1,-1,1,-5,-1,0,0,1756999655861789464
0,4.383143425,20250904112735862,None,6,229.87901306152344,-1,1,-2,-4,-1,0,-4,-2,1756999655861940622
0,4.390496969,20250904112735869,None,6,229.87901306152344,-1,-3,-4,-9,1,0,-2,-2,1756999655869271278
0,4.390625477,20250904112735869,None,6,229.87901306152344,-3,-3,-3,-2,-5,0,-1,-4,1756999655869407653
0,4.398055792,20250904112735877,None,6,231.5447998046875,2,-1,-1,-5,-2,-1,0,-2,1756999655876815080
0,4.398191214,20250904112735877,None,6,231.5447998046875,-7,-3,-3,0,1,-4,-3,0,1756999655876942634
0,4.405537605,20250904112735884,None,6,230.1169891357422,2,1,-1,1,0,2,2,2,1756999655884323358
0,4.405897617,20250904112735884,None,6,230.1169891357422,-2,0,4,1,-1,-1,-1,-1,1756999655884650468
0,4.420822144,20250904112735899,None,6,230.59292602539062,-1,-1,-6,-2,-5,0,-1,0,1756999655899482250
0,4.420967102,20250904112735899,None,6,230.59292602539062,-1,0,-3,-3,-2,-3,1,-4,1756999655899675607
0,4.428318977,20250904112735907,None,6,230.59292602539062,0,0,-1,-5,-8,-2,-4,-3,1756999655906973838
0,4.428446055,20250904112735907,None,6,230.59292602539062,0,0,0,2,8,5,0,2,1756999655907182693
0,4.443022728,20250904112735922,None,6,231.5447998046875,-3,-1,0,1,-3,-3,-1,-1,1756999655921714544
0,4.443135023,20250904112735922,None,6,231.5447998046875,1,0,0,4,1,-3,-1,1,1756999655921849966
0,4.450374365,20250904112735929,None,6,230.35494995117188,-3,0,0,-3,1,-2,1,-1,1756999655929175853
0,4.45046401,20250904112735929,None,6,230.35494995117188,2,0,0,-5,-2,-3,-3,1,1756999655929241657
0,4.457923889,20250904112735936,None,6,231.5447998046875,-1,-1,-2,-3,-2,-1,-3,-2,1756999655936721324
0,4.457999468,20250904112735936,None,6,231.5447998046875,0,-2,-3,1,-3,-1,1,-2,1756999655936830759
0,4.465584993,20250904112735944,None,6,229.64105224609375,-2,-1,-1,-3,-1,2,0,-3,1756999655944344997
0,4.465688229,20250904112735944,None,6,229.64105224609375,-1,-1,2,-3,-1,1,0,1,1756999655944505453
0,4.4805939200000005,20250904112735959,None,6,231.06886291503906,-2,-2,1,0,2,-2,-2,2,1756999655959338188
0,4.480736494,20250904112735959,None,6,231.06886291503906,0,-2,-4,0,0,-2,0,-1,1756999655959478616
0,4.488044739,20250904112735967,None,6,230.1169891357422,1,1,-2,1,0,-1,-3,-3,1756999655966827630
0,4.488160372,20250904112735967,None,6,230.1169891357422,-2,1,-2,5,4,2,1,0,1756999655966963768
0,4.50303936,20250904112735982,None,6,230.83090209960938,-4,-2,1,0,-2,1,-3,0,1756999655981764316
0,4.50313592,20250904112735982,None,6,230.83090209960938,1,-4,-2,-3,-2,-1,5,0,1756999655981903076
0,4.51047802,20250904112735989,None,6,230.83090209960938,1,0,1,1,-4,-1,-1,-2,1756999655989282369
0,4.510566473,20250904112735989,None,6,230.83090209960938,-2,-3,0,1,-1,0,0,-1,1756999655989403486
0,4.518043518,20250904112735997,None,6,230.59292602539062,0,2,-2,-1,1,-2,1,0,1756999655996821641
0,4.518123388,20250904112735997,None,6,230.59292602539062,2,-2,-1,-1,-2,-1,1,0,1756999655996940851
0,4.525503159,20250904112736004,None,6,231.3068389892578,-2,-2,-1,-2,-2,-3,-1,-1,1756999656004303216
0,4.525595903,20250904112736004,None,6,231.3068389892578,0,0,-1,-2,-2,5,5,1,1756999656004420757
0,4.540606976,20250904112736019,None,6,231.3068389892578,2,0,1,1,2,0,-1,2,1756999656019360780
0,4.54078722,20250904112736019,None,6,231.3068389892578,-2,1,-3,1,-1,1,-1,-2,1756999656019502639
0,4.548075914,20250904112736027,None,6,229.87901306152344,0,-1,-1,-3,-1,-4,-1,1,1756999656026798009
0,4.548199177,20250904112736027,None,6,229.87901306152344,-1,2,-2,-4,-2,-4,1,-2,1756999656026928901
0,4.555556297,20250904112736034,None,6,229.87901306152344,-1,-2,1,0,-1,2,1,0,1756999656034363985
0,4.555649996,20250904112736034,None,6,229.87901306152344,-3,0,0,0,1,-2,-1,-1,1756999656034487247
0,4.570534945,20250904112736049,None,6,229.87901306152344,-4,-1,-1,-1,-1,0,-1,-2,1756999656049275398
0,4.570667267,20250904112736049,None,6,229.87901306152344,-2,-1,-2,-4,-2,-1,1,0,1756999656049405813
0,4.57806921,20250904112736057,None,6,231.06886291503906,0,-2,-1,4,1,-3,-3,2,1756999656056833267
0,4.578160048,20250904112736057,None,6,231.06886291503906,-1,-2,-1,-4,0,-1,-2,-1,1756999656056965589
0,4.585527897,20250904112736064,None,6,230.35494995117188,-1,2,-1,-1,2,0,-1,-3,1756999656064327955
0,4.585647583,20250904112736064,None,6,230.35494995117188,0,2,0,0,2,0,-1,-1,1756999656064453601
0,4.6005404,20250904112736079,None,6,230.35494995117188,2,1,-1,-1,-4,-2,0,1,1756999656079293251
0,4.6006600859999995,20250904112736079,None,6,230.35494995117188,-2,0,-1,-1,-4,-3,-2,-3,1756999656079437017
0,4.6080093380000005,20250904112736086,None,6,231.06886291503906,-2,-4,1,-1,1,-2,1,-2,1756999656086793661
0,4.608107567,20250904112736087,None,6,231.06886291503906,0,0,-2,-4,-1,-1,4,0,1756999656086921691
0,4.623055458,20250904112736102,None,6,231.3068389892578,2,1,-1,-4,-1,-1,-2,-1,1756999656101789951
0,4.623166561,20250904112736102,None,6,231.3068389892578,3,-2,-4,-5,-9,0,-2,0,1756999656101930379
0,4.630438328,20250904112736109,None,6,231.3068389892578,-3,-3,-2,2,-1,-1,-1,1,1756999656109219789
0,4.6305291650000004,20250904112736109,None,6,231.3068389892578,-2,1,4,-1,1,2,-2,1,1756999656109350919
0,4.637978792,20250904112736116,None,6,229.87901306152344,-2,0,-2,-2,-1,-2,1,1,1756999656116744518
0,4.6380856040000005,20250904112736117,None,6,229.87901306152344,-1,-3,-4,1,2,0,-4,-2,1756999656116866350
0,4.645538807,20250904112736124,None,6,231.3068389892578,0,-4,1,2,2,-2,-2,-1,1756999656124304294
0,4.645656824,20250904112736124,None,6,231.3068389892578,-1,-3,1,-3,-2,0,-1,-1,1756999656124423503
0,4.660554171,20250904112736139,None,6,231.06886291503906,-1,-1,-4,-3,-2,0,0,1,1756999656139329433
0,4.660681009,20250904112736139,None,6,231.06886291503906,-1,-1,-1,0,-3,0,0,1,1756999656139462232
0,4.667978287,20250904112736146,None,6,231.06886291503906,-1,-2,1,1,1,2,1,0,1756999656146764755
0,4.668067932,20250904112736147,None,6,231.06886291503906,-1,-3,-1,-1,0,-1,3,0,1756999656146877527
0,4.683098555,20250904112736162,None,6,230.35494995117188,1,0,-1,-2,-3,0,-3,-2,1756999656161813259
0,4.683240652,20250904112736162,None,6,230.35494995117188,-1,3,-3,-2,-3,-1,-1,-1,1756999656161950826
0,4.6904857159999995,20250904112736169,None,6,230.83090209960938,1,3,-2,-1,-3,-2,-2,-2,1756999656169263124
0,4.690623522,20250904112736169,None,6,230.83090209960938,0,-2,0,-3,0,0,0,-1,1756999656169388294
0,4.697865009,20250904112736176,None,6,230.1169891357422,0,-2,3,-2,-2,-2,1,0,1756999656176664829
0,4.697927237,20250904112736176,None,6,230.1169891357422,0,-1,-1,1,3,2,0,-1,1756999656176753520
0,4.705444813,20250904112736184,None,6,231.3068389892578,-1,-3,1,0,-2,-2,1,-1,1756999656184263706
0,4.705554009,20250904112736184,None,6,231.3068389892578,-1,3,-2,-2,1,-2,1,-4,1756999656184406042
0,4.720616579,20250904112736199,None,6,229.64105224609375,-1,0,-3,0,-1,0,-1,-1,1756999656199340105
0,4.720726967,20250904112736199,None,6,229.64105224609375,-1,-3,-2,2,-2,1,-2,2,1756999656199496507
0,4.728100538,20250904112736207,None,6,231.5447998046875,0,1,-3,2,-2,-1,-2,-3,1756999656206829309
0,4.728240967,20250904112736207,None,6,231.5447998046875,-1,2,1,2,-2,-3,-1,2,1756999656206992387
0,4.743107796,20250904112736222,None,6,231.06886291503906,1,-2,-5,-3,-1,-1,4,2,1756999656221826076
0,4.7432258130000005,20250904112736222,None,6,231.06886291503906,-2,-3,-1,-1,0,2,0,-1,1756999656221982717
0,4.750566006,20250904112736229,None,6,231.06886291503906,-1,-4,3,1,5,0,-2,-3,1756999656229324102
0,4.750668049,20250904112736229,None,6,231.06886291503906,2,1,-2,-2,-2,-4,-1,0,1756999656229494571
0,4.758023024,20250904112736237,None,6,230.35494995117188,0,-1,0,1,2,1,0,1,1756999656236774206
0,4.758128643,20250904112736237,None,6,230.35494995117188,0,2,2,3,1,-3,0,0,1756999656236915826
0,4.765467882,20250904112736244,None,6,230.59292602539062,-1,-4,1,-1,0,-2,-2,-3,1756999656244274139
0,4.765526056,20250904112736244,None,6,230.59292602539062,0,-5,2,3,4,-3,-3,-3,1756999656244379281
0,4.780551911,20250904112736259,None,6,230.1169891357422,-1,0,-1,-4,-7,0,-5,1,1756999656259301662
0,4.780645371,20250904112736259,None,6,230.1169891357422,-2,0,1,5,7,3,1,-1,1756999656259446382
0,4.788033724,20250904112736267,None,6,231.5447998046875,-2,-1,-3,-1,-3,1,2,0,1756999656266818523
0,4.788113356,20250904112736267,None,6,231.5447998046875,-2,3,-1,-4,-1,0,-1,0,1756999656266955614
0,4.803010941,20250904112736281,None,6,230.1169891357422,-1,-1,0,-6,-4,-1,2,-1,1756999656281731605
0,4.80313158,20250904112736282,None,6,230.1169891357422,0,1,-4,-2,-5,0,0,-2,1756999656281855344
0,4.810580492,20250904112736289,None,6,231.78277587890625,-1,-2,1,0,1,1,0,1,1756999656289311170
0,4.810719252,20250904112736289,None,6,231.78277587890625,-1,-2,-2,2,0,-2,-2,-4,1756999656289434909
0,4.817993403,20250904112736296,None,6,230.1169891357422,-1,1,-2,4,3,-1,1,-1,1756999656296759843
0,4.818117619,20250904112736297,None,6,230.1169891357422,0,0,2,-1,-1,-1,0,-1,1756999656296879768
0,4.82557559,20250904112736304,None,6,231.5447998046875,-2,-2,-3,0,-3,0,-2,-1,1756999656304321765
0,4.825662613,20250904112736304,None,6,231.5447998046875,0,-3,0,-1,-4,-1,-3,1,1756999656304456472
0,4.840631008,20250904112736319,None,6,230.59292602539062,2,-1,-1,-5,-2,-2,-1,1,1756999656319359302
0,4.840750456,20250904112736319,None,6,230.59292602539062,1,-4,1,-1,-2,3,-3,0,1756999656319525003
0,4.848083496,20250904112736327,None,6,230.83090209960938,-1,1,0,0,-2,-1,0,1,1756999656326824188
0,4.848182917,20250904112736327,None,6,230.83090209960938,-3,-1,0,-3,1,-2,-4,0,1756999656326978921
0,4.863067865,20250904112736342,None,6,230.35494995117188,2,-1,-1,-4,-2,0,0,1,1756999656341810941
0,4.863180399,20250904112736342,None,6,230.35494995117188,-2,0,-1,-2,0,-2,-2,-1,1756999656341965913
0,4.870513439,20250904112736349,None,6,230.35494995117188,-4,0,0,2,1,0,0,1,1756999656349267005
0,4.87062645,20250904112736349,None,6,230.35494995117188,-2,0,-3,-1,-2,-2,-3,-2,1756999656349402666
0,4.878085852,20250904112736357,None,6,231.5447998046875,2,-1,2,1,5,0,0,0,1756999656356807947
0,4.878214598,20250904112736357,None,6,231.5447998046875,-1,-2,-2,-2,-3,0,1,-2,1756999656356959342
0,4.885544777,20250904112736364,None,6,230.1169891357422,-2,1,-2,-2,-3,-3,-2,0,1756999656364338397
0,4.885638952,20250904112736364,None,6,230.1169891357422,-2,0,3,-5,-8,-2,-2,-2,1756999656364464521
0,4.900652647,20250904112736379,None,6,229.87901306152344,1,2,-2,2,8,2,1,0,1756999656379349470
0,4.900794268,20250904112736379,None,6,229.87901306152344,-1,-1,-1,-3,2,0,2,1,1756999656379494428
0,4.908132076,20250904112736387,None,6,229.87901306152344,-1,-1,-2,-1,1,0,-1,-3,1756999656386816501
0,4.908495665,20250904112736387,None,6,231.5447998046875,1,1,-1,-1,-4,-2,-1,-3,1756999656386961936
0,4.923131466,20250904112736402,None,6,230.59292602539062,3,-3,-1,0,-2,-3,-2,-1,1756999656401810646
0,4.923327208,20250904112736402,None,6,230.59292602539062,-5,0,-4,2,-1,2,0,-3,1756999656401971340
0,4.9305229189999995,20250904112736409,None,6,230.59292602539062,-1,0,-1,0,-1,-5,-3,-3,1756999656409278392
0,4.930653811,20250904112736409,None,6,230.59292602539062,0,-2,1,-1,0,1,0,-2,1756999656409415960
0,4.938035488,20250904112736417,None,6,230.35494995117188,-2,1,-1,-3,-3,2,-1,1,1756999656416761636
0,4.938170195,20250904112736417,None,6,230.35494995117188,-3,0,0,2,1,3,1,1,1756999656416876792
0,4.945621967,20250904112736424,None,6,230.35494995117188,3,-1,0,-1,-1,0,2,-2,1756999656424351692
0,4.945771456,20250904112736424,None,6,230.35494995117188,2,0,-2,-1,2,1,0,-1,1756999656424489974
0,4.960659981,20250904112736439,None,6,231.06886291503906,-1,-1,-3,-3,-2,-1,1,-1,1756999656439327955
0,4.96089983,20250904112736439,None,6,231.06886291503906,-3,0,1,0,-2,0,2,0,1756999656439479589
0,4.9756658080000005,20250904112736454,None,6,231.3068389892578,0,-1,-2,1,0,2,0,2,1756999656454338550
0,4.97582531,20250904112736454,None,6,231.3068389892578,1,1,-1,-3,-1,-2,2,1,1756999656454495668
0,4.9830307959999995,20250904112736462,None,6,229.87901306152344,0,0,-2,-3,-6,-5,-2,2,1756999656461762189
0,4.98320818,20250904112736462,None,6,229.87901306152344,-1,1,3,0,5,3,-1,0,1756999656461885452
0,4.99053669,20250904112736469,None,6,229.87901306152344,-1,-2,0,0,-1,-2,0,-1,1756999656469248294
0,4.990706682,20250904112736469,None,6,229.87901306152344,-2,-4,1,-2,0,2,-2,-1,1756999656469380140
0,4.997923374,20250904112736476,None,6,230.83090209960938,-1,0,-1,-3,0,-2,-3,-3,1756999656476665019
0,4.998048306,20250904112736477,None,6,230.83090209960938,1,4,2,-3,-2,0,0,-2,1756999656476770877
0,5.005995274,20250904112736484,None,6,230.1169891357422,-3,-1,0,3,2,-1,0,0,1756999656484587430
0,5.006128073,20250904112736485,None,6,230.1169891357422,2,-4,0,-3,0,-2,-2,-3,1756999656484798431
0,5.020563126,20250904112736499,None,6,231.06886291503906,-1,0,-1,-3,-5,0,-3,0,1756999656499293088
0,5.020694733,20250904112736499,None,6,231.06886291503906,0,-2,0,-1,0,2,2,-3,1756999656499423980
0,5.028030157,20250904112736507,None,6,231.06886291503906,-2,1,1,-2,-3,-2,0,1,1756999656506769180
0,5.028152943,20250904112736507,None,6,231.06886291503906,-1,-2,-2,-1,-3,-2,-1,-1,1756999656506901741
0,5.043183088,20250904112736522,None,6,231.5447998046875,0,-2,2,2,7,1,-3,-1,1756999656521847724
0,5.043380261,20250904112736522,None,6,231.5447998046875,1,-2,-1,-1,-2,1,1,-2,1756999656522007465
0,5.050551653,20250904112736529,None,6,230.1169891357422,1,-2,-3,-1,-3,-3,-1,2,1756999656529257297
0,5.0507586,20250904112736529,None,6,230.1169891357422,1,-4,1,-1,-1,-1,0,-2,1756999656529389142
0,5.057965279,20250904112736536,None,6,231.5447998046875,-4,0,1,-1,-2,0,-1,-3,1756999656536741733
0,5.05807662,20250904112736537,None,6,231.5447998046875,-3,-1,-4,-5,-4,-2,-1,1,1756999656536869525
0,5.065601111,20250904112736544,None,6,231.5447998046875,-1,1,-1,1,-2,0,0,-1,1756999656544360876
0,5.065681458,20250904112736544,None,6,231.5447998046875,0,-3,2,3,3,-1,-1,1,1756999656544504404
0,5.080571413,20250904112736559,None,6,231.5447998046875,0,0,1,-1,0,-1,-1,-1,1756999656559334516
0,5.080677033,20250904112736559,None,6,231.5447998046875,-3,0,0,-6,-1,-3,0,-1,1756999656559499502
0,5.088050366,20250904112736567,None,6,230.1169891357422,1,-2,0,-4,-7,-3,-4,1,1756999656566830396
0,5.088141918,20250904112736567,None,6,230.1169891357422,0,3,1,-1,1,1,-4,-1,1756999656566965818
0,5.102985144,20250904112736581,None,6,230.35494995117188,-3,1,-3,-1,0,-1,-1,0,1756999656581749677
0,5.10308528,20250904112736582,None,6,230.35494995117188,-3,-3,-1,-1,1,1,2,-2,1756999656581891059
0,5.110498905,20250904112736589,None,6,230.35494995117188,1,-1,-2,0,1,-3,-1,-1,1756999656589303731
0,5.110596657,20250904112736589,None,6,230.35494995117188,1,1,-1,-2,-2,-1,-5,1,1756999656589428424
0,5.117996693,20250904112736596,None,6,230.59292602539062,-3,-4,-5,-6,-1,-1,-1,-1,1756999656596779346
0,5.11807847,20250904112736597,None,6,230.59292602539062,-3,-4,-1,0,1,1,-2,0,1756999656596904754
0,5.12553525,20250904112736604,None,6,230.83090209960938,-1,-1,-1,2,-2,2,-2,3,1756999656604326248
0,5.125637293,20250904112736604,None,6,230.83090209960938,-1,-2,-1,1,-5,-6,-1,-3,1756999656604469060
0,5.140555143,20250904112736619,None,6,231.3068389892578,-1,2,-1,-5,-5,-2,0,2,1756999656619317293
0,5.140654326,20250904112736619,None,6,231.3068389892578,-1,4,-1,3,2,2,0,-1,1756999656619458913
0,5.148019552,20250904112736627,None,6,231.3068389892578,0,1,1,2,1,3,-1,-1,1756999656626806259
0,5.148132324,20250904112736627,None,6,231.3068389892578,-3,2,2,2,-1,-1,-2,0,1756999656626945734
0,5.162969351,20250904112736641,None,6,231.5447998046875,0,0,3,2,-3,-2,3,1,1756999656641706228
0,5.163108349,20250904112736642,None,6,231.5447998046875,-6,-4,-4,-6,-3,1,2,0,1756999656641827344
0,5.170522213,20250904112736649,None,6,229.87901306152344,4,-3,-2,4,-1,-4,-2,-1,1756999656649298429
0,5.170662165,20250904112736649,None,6,229.87901306152344,-1,-3,0,0,-1,3,-3,0,1756999656649450302
0,5.178058148,20250904112736657,None,6,230.83090209960938,1,0,1,1,-3,-3,-3,0,1756999656656785011
0,5.178190947,20250904112736657,None,6,230.83090209960938,1,-3,-1,0,-1,-1,0,-1,1756999656656915903
0,5.193038702,20250904112736672,None,6,230.35494995117188,-5,0,-2,0,0,-2,-3,-2,1756999656671787738
0,5.193302631,20250904112736672,None,6,230.35494995117188,-1,-1,0,-1,-2,-2,1,0,1756999656671930789
0,5.200530768,20250904112736679,None,6,230.35494995117188,-1,-2,-1,-3,2,0,-1,-3,1756999656679291248
0,5.20064354,20250904112736679,None,6,230.35494995117188,-1,2,-1,0,-2,-5,-3,-1,1756999656679409265
0,5.208060265,20250904112736687,None,6,230.83090209960938,-2,0,2,-1,1,1,1,-1,1756999656686780691
0,5.208231211,20250904112736687,None,6,230.83090209960938,-1,-3,-5,-2,-1,-4,1,-2,1756999656686903476
0,5.223498345,20250904112736702,None,6,231.06886291503906,-2,-1,0,-2,1,-1,2,1,1756999656702247142
0,5.223698855,20250904112736702,None,6,231.06886291503906,1,-3,-4,-2,0,1,-2,1,1756999656702370643
0,5.230526924,20250904112736709,None,6,229.87901306152344,0,-3,-3,0,-5,1,-1,1,1756999656709189653
0,5.230685711,20250904112736709,None,6,229.87901306152344,4,3,0,2,1,-3,1,-1,1756999656709252357
0,5.237989187,20250904112736716,None,6,229.87901306152344,-1,1,2,-2,-2,0,0,0,1756999656716789722
0,5.238073349,20250904112736717,None,6,229.87901306152344,-3,-2,-2,-2,-3,-4,0,-1,1756999656716909408
0,5.253009081,20250904112736731,None,6,229.87901306152344,-4,-3,-1,1,5,1,1,1,1756999656731778621
0,5.253129721,20250904112736732,None,6,229.87901306152344,-1,-1,0,0,-1,-2,1,2,1756999656731904506
0,5.260507345,20250904112736739,None,6,231.06886291503906,2,-2,-4,0,-4,-1,0,0,1756999656739300489
0,5.260601759,20250904112736739,None,6,231.06886291503906,1,1,0,-5,-2,0,-2,-2,1756999656739422559
0,5.267964125,20250904112736746,None,6,230.59292602539062,2,-3,-1,1,0,-2,-3,2,1756999656746763467
0,5.268066645,20250904112736747,None,6,230.59292602539062,-1,0,-2,-2,-10,-7,0,0,1756999656746885299
0,5.283007383,20250904112736761,None,6,230.59292602539062,-3,-1,-2,3,3,1,-2,-3,1756999656761755704
0,5.283128023,20250904112736762,None,6,230.59292602539062,-1,-3,-2,-1,-1,-1,0,-1,1756999656761886358
0,5.290565729,20250904112736769,None,6,231.06886291503906,-1,-5,0,-3,1,1,-1,-2,1756999656769292831
0,5.290693045,20250904112736769,None,6,231.06886291503906,1,-2,-1,-4,-1,-1,2,1,1756999656769413709
0,5.2979483609999996,20250904112736776,None,6,230.59292602539062,-1,3,-1,0,-3,-2,-1,1,1756999656776740550
0,5.298054934,20250904112736777,None,6,230.59292602539062,0,-2,1,1,-1,-3,-4,1,1756999656776858329
0,5.312956095,20250904112736791,None,6,231.3068389892578,1,1,1,-1,2,-4,1,1,1756999656791744232
0,5.31305337,20250904112736792,None,6,231.3068389892578,-1,-3,-2,-2,-2,-3,0,-2,1756999656791862964
0,5.32066536,20250904112736799,None,6,229.64105224609375,-1,1,-3,-2,-1,2,0,4,1756999656799435377
0,5.32076335,20250904112736799,None,6,229.64105224609375,-1,1,-2,-1,-3,-2,-4,-3,1756999656799602985
0,5.328049898,20250904112736807,None,6,231.78277587890625,1,-2,1,1,4,0,0,1,1756999656806810617
0,5.328160763,20250904112736807,None,6,231.78277587890625,0,-2,-1,-1,-1,-1,0,1,1756999656806952714
0,5.343089104,20250904112736822,None,6,231.3068389892578,0,1,1,-5,-6,-5,-2,0,1756999656821813344
0,5.343213797,20250904112736822,None,6,231.3068389892578,-1,-2,4,6,8,2,2,2,1756999656821970701
0,5.350458861,20250904112736829,None,6,231.3068389892578,-2,-1,-1,-3,-3,2,-5,1,1756999656829272985
0,5.3505377769999996,20250904112736829,None,6,231.3068389892578,0,-1,2,0,0,-1,0,0,1756999656829399108
0,5.357929707,20250904112736836,None,6,230.1169891357422,2,-5,4,-1,-3,-4,0,1,1756999656836696863
0,5.358026505,20250904112736837,None,6,230.1169891357422,1,-3,-11,-4,-5,-1,-3,0,1756999656836823701
0,5.373013497,20250904112736851,None,6,230.83090209960938,0,0,-2,2,-1,-1,1,-2,1756999656851784467
0,5.373124838,20250904112736852,None,6,230.83090209960938,0,0,-1,1,1,1,0,-2,1756999656851919412
0,5.380506039,20250904112736859,None,6,230.1169891357422,-2,1,0,-1,-6,1,-2,-3,1756999656859311103
0,5.380585432,20250904112736859,None,6,230.1169891357422,0,-3,-1,0,5,-1,3,-1,1756999656859437227
0,5.38792491,20250904112736866,None,6,231.5447998046875,0,-1,2,-2,-1,-1,0,3,1756999656866735935
0,5.387996912,20250904112736866,None,6,231.5447998046875,1,-1,-2,-2,0,-2,-3,-3,1756999656866855621
0,5.402920961,20250904112736881,None,6,229.64105224609375,-1,3,2,-3,-2,2,-1,-2,1756999656881713628
0,5.403023481,20250904112736882,None,6,229.64105224609375,-3,1,-3,1,-1,0,-2,-5,1756999656881825685
0,5.41055727,20250904112736889,None,6,231.3068389892578,0,-1,-3,1,0,-2,-2,0,1756999656889334201
0,5.4106462,20250904112736889,None,6,231.3068389892578,2,-4,1,-5,-3,2,-3,-2,1756999656889489173
0,5.417948485,20250904112736896,None,6,229.87901306152344,0,0,3,-1,-2,-5,-2,0,1756999656896727561
0,5.418071032,20250904112736897,None,6,229.87901306152344,-1,-1,-1,0,3,-2,-2,0,1756999656896855592
0,5.433019161,20250904112736912,None,6,231.3068389892578,-5,-3,0,-1,1,-1,-4,-5,1756999656911796569
0,5.433129072,20250904112736912,None,6,231.3068389892578,-3,-3,-3,-3,-4,0,-1,-3,1756999656911936283
0,5.44056797,20250904112736919,None,6,230.1169891357422,0,0,0,1,5,0,-1,-3,1756999656919360399
0,5.440672636,20250904112736919,None,6,230.1169891357422,0,0,1,2,-3,1,-1,-3,1756999656919487714
0,5.448040962,20250904112736927,None,6,230.83090209960938,-1,-1,-1,2,-1,0,0,-1,1756999656926808834
0,5.448137283,20250904112736927,None,6,230.83090209960938,0,-3,0,1,-3,-1,-1,-1,1756999656926970958
0,5.462843418,20250904112736941,None,6,230.59292602539062,-2,-2,-1,-1,0,-2,-3,0,1756999656941649436
0,5.462922573,20250904112736941,None,6,230.59292602539062,-2,0,0,-3,-1,-2,-1,-3,1756999656941756010
0,5.4704215529999995,20250904112736949,None,6,230.59292602539062,1,-1,-2,-1,2,2,-1,-2,1756999656949211597
0,5.470493555,20250904112736949,None,6,230.59292602539062,-1,2,-1,-1,-1,0,-2,0,1756999656949355125
0,5.477986097,20250904112736956,None,6,231.3068389892578,-2,-2,-5,0,0,-3,0,0,1756999656956753253
0,5.478091002,20250904112736957,None,6,231.3068389892578,-2,-1,-2,-2,-1,-5,1,0,1756999656956891298
0,5.493023634,20250904112736972,None,6,231.5447998046875,1,-3,1,-1,-3,1,0,-2,1756999656971779823
0,5.493123531,20250904112736972,None,6,231.5447998046875,1,1,0,-1,-2,-2,-3,-1,1756999656971915960
0,5.500534773,20250904112736979,None,6,229.64105224609375,-4,0,-1,-1,-2,2,0,1,1756999656979329109
0,5.500621081,20250904112736979,None,6,229.64105224609375,-1,0,-2,-1,0,-2,-3,-3,1756999656979464054
0,5.507987499,20250904112736986,None,6,229.64105224609375,2,0,2,0,0,-3,0,-1,1756999656986753463
0,5.508080721,20250904112736987,None,6,229.64105224609375,-1,1,0,4,0,0,-2,1,1756999656986888647
0,5.522955179,20250904112737001,None,6,229.87901306152344,0,-1,-4,0,2,3,-1,2,1756999657001766204
0,5.523059607,20250904112737002,None,6,229.87901306152344,-1,-1,-4,-5,0,-4,1,-3,1756999657001901388
0,5.53049469,20250904112737009,None,6,231.3068389892578,0,-2,-1,-5,-11,-5,-1,-1,1756999657009325265
0,5.5306036469999995,20250904112737009,None,6,231.3068389892578,-1,-3,3,4,9,1,4,-1,1756999657009446859
0,5.538080454,20250904112737017,None,6,230.83090209960938,-1,1,-2,-3,-1,1,-1,-3,1756999657016859531
0,5.538176298,20250904112737017,None,6,230.83090209960938,0,2,-3,-5,-8,-7,-3,-2,1756999657016975402
0,5.552963019,20250904112737031,None,6,230.59292602539062,-1,1,0,-1,2,-1,-1,-1,1756999657031701326
0,5.553068876,20250904112737032,None,6,230.59292602539062,-2,-2,0,4,2,-5,-5,-2,1756999657031832218
0,5.560410738,20250904112737039,None,6,231.3068389892578,0,-2,1,-2,0,-1,-3,1,1756999657039141654
0,5.560566425,20250904112737039,None,6,231.3068389892578,-4,-1,-3,-3,-2,-4,1,0,1756999657039242982
0,5.567903519,20250904112737046,None,6,230.1169891357422,-1,-4,-3,-1,1,0,-1,1,1756999657046692371
0,5.567970753,20250904112737046,None,6,230.1169891357422,0,-3,1,0,0,-2,2,-3,1756999657046799898
0,5.5831103330000005,20250904112737062,None,6,229.87901306152344,-1,1,-2,-3,-3,0,-2,-2,1756999657061823844
0,5.583236218,20250904112737062,None,6,229.87901306152344,-1,-2,-2,2,3,0,1,-2,1756999657062008142
0,5.590559483,20250904112737069,None,6,231.5447998046875,-1,2,-3,-2,-4,-1,0,-1,1756999657069328308
0,5.590641737,20250904112737069,None,6,231.5447998046875,-1,-2,-1,2,2,0,0,-3,1756999657069484472
0,5.598012924,20250904112737076,None,6,231.5447998046875,-1,-2,0,-2,1,-4,0,-1,1756999657076764583
0,5.5981087689999995,20250904112737077,None,6,231.5447998046875,-1,0,-2,1,-3,-2,0,-4,1756999657076945066
0,5.613159418,20250904112737092,None,6,231.06886291503906,1,-1,-1,-1,-4,0,-3,-2,1756999657091894388
0,5.613244534,20250904112737092,None,6,231.06886291503906,-1,-2,-2,-1,3,2,0,-3,1756999657092079401
0,5.62049818,20250904112737099,None,6,230.35494995117188,0,0,0,3,-2,-1,2,2,1756999657099291324
0,5.620568991,20250904112737099,None,6,230.35494995117188,-3,0,-2,-1,-1,1,-1,1,1756999657099431753
0,5.628048897,20250904112737107,None,6,230.59292602539062,-1,0,-4,-2,-6,-1,0,1,1756999657106821537
0,5.628133535,20250904112737107,None,6,230.59292602539062,1,-1,1,4,5,0,1,3,1756999657106957912
0,5.643023253,20250904112737122,None,6,230.83090209960938,0,-5,-2,-2,-4,0,3,-2,1756999657121789455
0,5.643115759,20250904112737122,None,6,230.83090209960938,-5,-1,-3,-4,-5,-4,0,-1,1756999657121928215
0,5.650450945,20250904112737129,None,6,229.87901306152344,-4,0,0,3,5,4,1,1,1756999657129244565
0,5.650532246,20250904112737129,None,6,229.87901306152344,2,-1,1,-1,-3,-1,1,-3,1756999657129368543
0,5.658139229,20250904112737137,None,6,231.3068389892578,-4,-2,1,-2,-4,0,-5,-3,1756999657136898517
0,5.658238411,20250904112737137,None,6,231.3068389892578,-1,2,0,-1,3,3,-1,0,1756999657137056827
0,5.673152447,20250904112737152,None,6,231.5447998046875,-6,0,-1,0,-2,-2,0,0,1756999657151899576
0,5.673242092,20250904112737152,None,6,231.5447998046875,1,2,1,1,0,-1,0,-1,1756999657152055263
0,5.680663586,20250904112737159,None,6,231.5447998046875,0,2,3,0,0,0,1,1,1756999657159431695
0,5.680779934,20250904112737159,None,6,231.5447998046875,0,-1,1,-1,-1,-3,-1,-4,1756999657159564733
0,5.688135147,20250904112737167,None,6,229.87901306152344,0,-1,2,1,0,0,0,-1,1756999657166910648
0,5.688246966,20250904112737167,None,6,229.87901306152344,-1,3,1,0,-1,-3,-2,-1,1756999657167047023
0,5.702998877,20250904112737181,None,6,230.59292602539062,-1,0,-1,-2,3,-3,-1,1,1756999657181778192
0,5.703087092,20250904112737182,None,6,230.59292602539062,-2,1,5,2,1,-1,2,3,1756999657181916713
0,5.710418701,20250904112737189,None,6,230.59292602539062,-2,-1,-10,-5,-1,1,-3,-3,1756999657189241170
0,5.710499525,20250904112737189,None,6,230.59292602539062,-3,-1,0,1,0,0,1,-5,1756999657189367294
0,5.717912674,20250904112737196,None,6,230.59292602539062,-2,0,0,2,1,-2,-1,1,1756999657196732521
0,5.71798873,20250904112737196,None,6,230.59292602539062,1,-1,2,-3,-9,0,-3,0,1756999657196854591
0,5.733126402,20250904112737212,None,6,230.1169891357422,0,-2,-1,4,3,2,2,3,1756999657211841821
0,5.733257055,20250904112737212,None,6,230.1169891357422,-2,-1,-1,-1,-3,0,-2,0,1756999657211998462
0,5.740535736,20250904112737219,None,6,231.5447998046875,-1,0,-1,4,0,-1,1,1,1756999657219343662
0,5.740626097,20250904112737219,None,6,231.5447998046875,-1,-5,-1,-5,-4,-3,-1,2,1756999657219478368
0,5.748031855,20250904112737227,None,6,230.1169891357422,-2,0,0,-2,-4,-1,1,0,1756999657226814270
0,5.748124123,20250904112737227,None,6,230.1169891357422,-2,1,-1,-1,0,-1,2,-2,1756999657226950168
0,5.763123036,20250904112737242,None,6,231.78277587890625,-1,0,-2,-4,-2,-1,-3,0,1756999657241760253
0,5.763313532,20250904112737242,None,6,231.78277587890625,-1,-2,-2,0,-3,-3,-1,-1,1756999657241902589
0,5.770409584,20250904112737249,None,6,230.1169891357422,0,-2,-2,1,1,2,-3,1,1756999657249186515
0,5.770502806,20250904112737249,None,6,230.1169891357422,-1,-1,0,0,-1,1,-4,-2,1756999657249269485
0,5.778104544,20250904112737257,None,6,231.06886291503906,2,1,-1,1,0,-1,2,-4,1756999657256751298
0,5.778298617,20250904112737257,None,6,231.06886291503906,3,1,0,4,5,-1,-3,-3,1756999657256892681
0,5.793153763,20250904112737272,None,6,230.35494995117188,0,-1,-1,3,-1,-3,1,0,1756999657271841049
0,5.793320418,20250904112737272,None,6,230.35494995117188,1,1,1,-1,0,1,-2,0,1756999657271987438
0,5.800521612,20250904112737279,None,6,230.83090209960938,-4,-3,-3,-2,-2,-2,-3,0,1756999657279307126
0,5.800628901,20250904112737279,None,6,230.83090209960938,0,1,-1,-2,0,-1,0,0,1756999657279435873
0,5.808043718,20250904112737287,None,6,230.83090209960938,-1,1,-1,-1,-1,-3,-1,1,1756999657286815881
0,5.808131933,20250904112737287,None,6,230.83090209960938,0,-3,-2,-3,-1,1,0,-1,1756999657286969900
0,5.823020935,20250904112737301,None,6,231.5447998046875,-3,-3,1,-6,-5,-4,-3,-3,1756999657301747560
0,5.823110819,20250904112737302,None,6,231.5447998046875,-3,4,0,1,3,-1,-1,-1,1756999657301902055
0,5.830463648,20250904112737309,None,6,231.5447998046875,1,0,-2,0,2,-2,1,0,1756999657309245347
0,5.830543757,20250904112737309,None,6,231.5447998046875,0,-1,3,-1,-4,1,0,-1,1756999657309388875
0,5.838023186,20250904112737317,None,6,229.64105224609375,-2,-4,-5,-2,0,-2,-2,-2,1756999657316778421
0,5.838117361,20250904112737317,None,6,229.64105224609375,-4,1,-1,0,-3,0,0,0,1756999657316920042
0,5.852975369,20250904112737331,None,6,229.87901306152344,-4,-1,-1,-1,1,-1,3,1,1756999657331730604
0,5.853066683,20250904112737332,None,6,229.87901306152344,-1,-1,-2,1,-1,-1,-2,-1,1756999657331844568
0,5.860503912,20250904112737339,None,6,231.5447998046875,0,-2,-2,-1,-4,-3,-1,-4,1756999657339289665
0,5.860590458,20250904112737339,None,6,231.5447998046875,-1,2,-2,-1,1,-1,0,-3,1756999657339421272
0,5.868074179,20250904112737347,None,6,231.5447998046875,-1,-2,-1,0,-2,1,-3,2,1756999657346804141
0,5.868248224,20250904112737347,None,6,231.5447998046875,0,0,0,-1,0,1,-1,-1,1756999657347030639
0,5.883032322,20250904112737362,None,6,230.59292602539062,-3,0,-2,-3,-3,0,-1,-1,1756999657361783742
0,5.88313055,20250904112737362,None,6,230.59292602539062,-5,1,-1,-1,0,2,-2,-1,1756999657361929178
0,5.890528441,20250904112737369,None,6,230.35494995117188,1,-2,-2,-2,0,0,0,-1,1756999657369188547
0,5.890727043,20250904112737369,None,6,230.35494995117188,1,0,0,-6,-10,-4,-2,-4,1756999657369389772
0,5.898090839,20250904112737377,None,6,230.1169891357422,0,0,-1,5,8,0,2,2,1756999657376802921
0,5.898242951,20250904112737377,None,6,230.1169891357422,-5,-3,-2,1,-1,-2,-1,0,1756999657376942873
0,5.913210631,20250904112737392,None,6,231.3068389892578,-3,3,-2,-1,-1,0,0,0,1756999657391794443
0,5.913403511,20250904112737392,None,6,231.3068389892578,1,-3,1,-2,-2,2,0,-3,1756999657391927480
0,5.920523405,20250904112737399,None,6,229.64105224609375,0,1,0,4,4,-1,-1,2,1756999657399281978
0,5.920676231,20250904112737399,None,6,229.64105224609375,-2,-1,-3,-5,-3,-4,-5,-2,1756999657399473428
0,5.928084135,20250904112737407,None,6,231.06886291503906,0,-1,-3,0,0,1,-1,0,1756999657406806945
0,5.928221464,20250904112737407,None,6,231.06886291503906,0,2,-2,-2,-5,-3,0,-1,1756999657406953811
0,5.943037272,20250904112737422,None,6,231.3068389892578,-3,-2,2,4,1,4,0,-3,1756999657421740770
0,5.943181753,20250904112737422,None,6,231.3068389892578,0,3,-3,0,-2,0,0,0,1756999657421873092
0,5.950455904,20250904112737429,None,6,231.3068389892578,1,-1,0,0,-2,-1,1,-1,1756999657429203271
0,5.9505856040000005,20250904112737429,None,6,231.3068389892578,-3,-1,-2,-2,-3,-3,0,-1,1756999657429333686
0,5.958119631,20250904112737437,None,6,230.1169891357422,-1,0,0,1,-2,0,0,0,1756999657436746358
0,5.958275318,20250904112737437,None,6,230.1169891357422,-4,0,-2,1,4,1,0,-1,1756999657436881303
0,5.9730679989999995,20250904112737452,None,6,230.35494995117188,-1,1,-2,-3,-3,-3,-1,0,1756999657451779365
0,5.973193169,20250904112737452,None,6,230.35494995117188,-3,2,-2,0,5,0,-3,-2,1756999657451907396
0,5.980522394,20250904112737459,None,6,230.35494995117188,1,-3,0,0,-2,0,-3,2,1756999657459157705
0,5.980598688,20250904112737459,None,6,230.35494995117188,0,-1,0,-5,-1,1,2,-1,1756999657459246635
0,5.988099575,20250904112737467,None,6,231.06886291503906,-2,-2,-1,-1,-1,-2,1,2,1756999657466692686
0,5.988197088,20250904112737467,None,6,231.06886291503906,-1,0,5,-1,1,-4,1,-2,1756999657466812133
0,6.003376722,20250904112737482,None,6,230.1169891357422,-2,-5,-7,-3,-3,0,-1,-1,1756999657481791734
0,6.003540516,20250904112737482,None,6,230.1169891357422,-2,1,0,3,0,-3,-5,-2,1756999657481940269
0,6.010753155,20250904112737489,None,6,231.5447998046875,-1,-2,1,1,-5,-1,1,-1,1756999657489268302
0,6.010889053,20250904112737489,None,6,231.5447998046875,-2,-3,0,0,1,2,1,-2,1756999657489384174
0,6.018137217,20250904112737497,None,6,229.64105224609375,0,-5,-3,-4,-4,-2,-2,0,1756999657496692895
0,6.018254042,20250904112737497,None,6,229.64105224609375,2,-1,-2,-6,-7,-4,-2,-1,1756999657496796369
0,6.033290625,20250904112737512,None,6,230.1169891357422,0,2,-1,1,1,0,3,1,1756999657511762380
0,6.033417463,20250904112737512,None,6,230.1169891357422,1,-1,0,-2,1,1,0,5,1756999657511889696
0,6.040761709,20250904112737519,None,6,230.1169891357422,-3,-1,0,-1,-3,-5,-3,-2,1756999657519285440
0,6.040879965,20250904112737519,None,6,230.1169891357422,-1,-2,-1,1,-2,1,-2,1,1756999657519403696
0,6.04843235,20250904112737527,None,6,231.3068389892578,0,-1,0,-2,-3,-4,-1,-3,1756999657526895046
0,6.048596144,20250904112737527,None,6,231.3068389892578,1,1,-1,-3,-3,1,-1,-3,1756999657527020215
0,6.063358069,20250904112737542,None,6,230.35494995117188,-1,0,2,1,1,-1,0,2,1756999657541861772
0,6.063519478,20250904112737542,None,6,230.35494995117188,-1,-2,-3,-2,-1,-1,-1,-3,1756999657541987419
0,6.070378542,20250904112737549,None,6,231.06886291503906,-1,0,-2,1,0,0,-3,-2,1756999657549144744
0,6.070472956,20250904112737549,None,6,231.06886291503906,0,1,1,-2,-4,-2,-2,1,1756999657549277544
0,6.085736275,20250904112737564,None,6,230.1169891357422,-2,-2,-2,-3,-3,-1,-2,-2,1756999657564433813
0,6.08587575,20250904112737564,None,6,230.1169891357422,1,4,0,-1,-3,-1,-1,1,1756999657564665794
0,6.093149424,20250904112737572,None,6,231.3068389892578,-2,-2,-3,2,-1,-1,-2,0,1756999657571812629
0,6.093360424,20250904112737572,None,6,231.3068389892578,0,-5,1,-1,-2,1,-3,-3,1756999657571976423
0,6.100714684,20250904112737579,None,6,229.87901306152344,0,-1,-1,-3,1,-5,0,1,1756999657579370021
0,6.100878,20250904112737579,None,6,229.87901306152344,0,1,0,-2,-2,-2,1,-1,1756999657579538345
0,6.115669966,20250904112737594,None,6,231.3068389892578,0,0,-2,0,0,-1,0,1,1756999657594344615
0,6.115818977,20250904112737594,None,6,231.3068389892578,0,-2,0,-5,-3,-5,-1,-4,1756999657594516038
0,6.122894764,20250904112737601,None,6,230.1169891357422,0,-1,-1,0,0,-2,2,-5,1756999657601685762
