gt,time_elapsed,current_time,current_task,motor_position,futek,emg0,emg1,emg2,emg3,emg4,emg5,emg6,emg7,emg_timer_stamp
0,0.038374663,20250904111139338,None,-25555,9.994739532470703,-1,-4,-4,-1,0,0,-2,0,1756998699338049650
0,0.03851533,20250904111139338,None,-25555,9.994739532470703,2,1,-2,-1,-2,0,-2,0,1756998699338173151
0,0.053231239,20250904111139353,None,-25557,7.139100074768066,-1,1,0,-2,-1,-2,0,-4,1756998699352929592
0,0.053369045,20250904111139353,None,-25557,7.139100074768066,3,3,0,-1,1,-1,-2,-4,1756998699353055238
0,0.06064415,20250904111139360,None,-25559,13.80225944519043,-1,-5,-2,-4,-3,-3,1,-2,1756998699360438108
0,0.060727596,20250904111139360,None,-25559,13.80225944519043,0,0,1,-1,0,2,1,-1,1756998699360546827
0,0.068099976,20250904111139368,None,-25560,13.80225944519043,-1,5,1,-1,1,-2,1,0,1756998699367903470
0,0.068188429,20250904111139368,None,-25560,13.80225944519043,-6,-8,-1,-1,2,-1,2,0,1756998699368018388
0,0.083822489,20250904111139383,None,-25561,14.040229797363281,-1,-1,-1,-2,-2,-1,-8,-2,1756998699383501052
0,0.083970785,20250904111139383,None,-25561,14.040229797363281,3,-3,1,-3,-2,-1,0,-2,1756998699383637666
0,0.090986967,20250904111139390,None,-25562,5.71127986907959,-1,0,-2,1,1,3,9,2,1756998699390607833
0,0.0911057,20250904111139391,None,-25562,5.71127986907959,-2,1,-2,0,1,0,2,0,1756998699390750169
0,0.098443508,20250904111139398,None,-25563,12.850379943847656,0,1,2,1,-1,-4,-6,-5,1756998699398084163
0,0.098625899,20250904111139398,None,-25563,12.850379943847656,-1,0,3,-1,-2,-1,-4,-2,1756998699398280858
0,0.114112377,20250904111139414,None,-25564,8.328949928283691,-1,-2,-4,2,1,0,0,2,1756998699413287878
0,0.114291668,20250904111139414,None,-25564,8.328949928283691,-1,1,-1,-1,-2,-5,-2,0,1756998699413502693
0,0.121058703,20250904111139421,None,-25565,10.470680236816406,-1,1,-1,-2,-2,-4,2,-1,1756998699420514345
0,0.1212883,20250904111139421,None,-25565,10.470680236816406,-1,-3,1,-1,-2,1,5,-3,1756998699420640707
0,0.12856102,20250904111139428,None,-25566,9.994739532470703,0,1,1,0,-2,-2,0,-2,1756998699428052425
0,0.128712177,20250904111139428,None,-25566,9.994739532470703,1,5,-1,-1,2,0,-3,-2,1756998699428200960
0,0.143466711,20250904111139443,None,-25569,12.612409591674805,-1,-3,1,0,-2,-2,-1,-2,1756998699443153142
0,0.143627405,20250904111139443,None,-25569,12.612409591674805,-1,-4,-2,0,-1,-1,-2,2,1756998699443337440
0,0.150787354,20250904111139450,None,-25569,12.612409591674805,2,8,-3,-1,-2,2,1,-1,1756998699450548887
0,0.15088439,20250904111139450,None,-25569,12.612409591674805,-5,-9,-2,-2,1,-4,3,-1,1756998699450695514
0,0.158216953,20250904111139458,None,-25570,5.4733099937438965,-1,-5,0,-5,-2,0,1,-3,1756998699457969665
0,0.158318043,20250904111139458,None,-25570,5.4733099937438965,-1,4,1,0,2,-2,-1,-3,1756998699458084344
0,0.17314148,20250904111139473,None,-25572,5.4733099937438965,2,3,3,-3,0,-3,-1,-2,1756998699472947597
0,0.173202753,20250904111139473,None,-25572,5.4733099937438965,-2,-8,-2,-1,0,2,0,-1,1756998699473057985
0,0.180593014,20250904111139480,None,-25573,13.088349342346191,-2,-4,0,-3,-3,0,0,0,1756998699480440378
0,0.180838823,20250904111139480,None,-25573,13.088349342346191,0,0,-4,-2,-3,-2,1,2,1756998699480552196
0,0.188883066,20250904111139488,None,-25574,13.088349342346191,0,-2,-1,-3,-1,-2,-1,0,1756998699488257646
0,0.189092875,20250904111139489,None,-25574,13.088349342346191,-2,1,1,1,1,-5,-8,-2,1756998699488404035
0,0.20369196,20250904111139503,None,-25575,10.946619987487793,-2,-2,-1,-1,-2,4,4,2,1756998699503104209
0,0.20388341,20250904111139503,None,-25575,10.946619987487793,-1,0,-2,-1,-1,-1,1,0,1756998699503252506
0,0.211180687,20250904111139511,None,-25576,10.470680236816406,0,-1,-2,-4,-3,-1,0,-2,1756998699510614156
0,0.211435795,20250904111139511,None,-25576,10.470680236816406,2,3,1,-2,0,-5,0,1,1756998699510750532
0,0.21841383,20250904111139518,None,-25577,8.09097957611084,-3,-5,0,0,0,-1,0,1,1756998699518003225
0,0.218565941,20250904111139518,None,-25577,8.09097957611084,1,-3,0,-1,-3,1,-5,-2,1756998699518117666
0,0.234035969,20250904111139534,None,-25579,12.850379943847656,2,0,0,0,0,-1,-1,-2,1756998699533346652
0,0.234452009,20250904111139534,None,-25579,12.850379943847656,-4,4,-1,-2,-1,-1,2,2,1756998699533679962
0,0.249107123,20250904111139549,None,-25581,13.80225944519043,0,-8,-3,-2,-1,0,-5,-4,1756998699548695564
0,0.249311924,20250904111139549,None,-25581,13.80225944519043,0,-2,-4,1,-1,-4,-4,-3,1756998699548828840
0,0.250042439,20250904111139550,None,-25581,13.80225944519043,-3,3,2,2,-1,0,1,-1,1756998699549714088
0,0.25020814,20250904111139550,None,-25581,13.80225944519043,1,-2,-2,-4,0,2,5,0,1756998699549856662
0,0.263494969,20250904111139563,None,-25583,5.71127986907959,-4,0,-1,-1,-1,-1,-2,1,1756998699563088417
0,0.263671875,20250904111139563,None,-25583,5.71127986907959,-2,-5,1,1,-3,1,0,-2,1756998699563261270
0,0.270815611,20250904111139570,None,-25583,13.564290046691895,2,-3,0,0,1,2,-1,-3,1756998699570580959
0,0.270910025,20250904111139570,None,-25583,13.564290046691895,1,1,-3,-2,0,-2,-3,0,1756998699570726871
0,0.278349877,20250904111139578,None,-25584,7.139100074768066,-4,1,-3,-1,-1,-1,-4,0,1756998699578087091
0,0.27855587,20250904111139578,None,-25584,7.139100074768066,-1,1,-1,-1,-3,-6,-5,-5,1756998699578349590
0,0.293448448,20250904111139593,None,-25586,9.756770133972168,-1,1,1,1,2,1,6,2,1756998699593131303
0,0.293598175,20250904111139593,None,-25586,9.756770133972168,-1,1,1,0,1,-2,0,1,1756998699593290567
0,0.30086422,20250904111139600,None,-25587,9.280829429626465,-4,-3,-1,-2,-2,-3,-6,-1,1756998699600626707
0,0.300978422,20250904111139600,None,-25587,9.280829429626465,1,-1,1,-1,-4,1,2,0,1756998699600790262
0,0.308640719,20250904111139608,None,-25587,9.280829429626465,1,-3,-2,0,-1,-3,-3,-1,1756998699608096837
0,0.308844805,20250904111139608,None,-25587,9.280829429626465,-2,1,3,0,0,-2,-2,-1,1756998699608208417
0,0.323424339,20250904111139623,None,-25590,6.187219619750977,-4,-7,-1,0,-1,-1,-4,-1,1756998699623121500
0,0.323558331,20250904111139623,None,-25590,6.187219619750977,-1,-4,1,0,-1,1,9,1,1756998699623262166
0,0.330897808,20250904111139630,None,-25591,14.278200149536133,-1,1,-1,-1,1,0,2,1,1756998699630673885
0,0.331003666,20250904111139630,None,-25591,14.278200149536133,2,-1,-3,-3,-1,-4,-1,-3,1756998699630829811
0,0.338312149,20250904111139638,None,-25592,14.278200149536133,0,-4,-1,-1,-2,1,-5,0,1756998699638046503
0,0.338409186,20250904111139638,None,-25592,14.278200149536133,1,2,-1,2,-1,-2,-2,-4,1756998699638143539
0,0.353403807,20250904111139653,None,-25593,13.80225944519043,0,-1,1,-2,1,-2,-1,-1,1756998699653095960
0,0.353513956,20250904111139653,None,-25593,13.80225944519043,1,-1,0,-1,-2,0,-1,0,1756998699653270244
0,0.361042738,20250904111139661,None,-25594,6.425189971923828,1,-1,0,-1,-2,-2,-5,0,1756998699660546779
0,0.361496687,20250904111139661,None,-25594,6.425189971923828,3,6,-3,-2,-3,-1,0,1,1756998699660681247
0,0.36861682,20250904111139668,None,-25595,11.42255973815918,0,0,1,-2,2,0,-1,-2,1756998699668073177
0,0.36879015,20250904111139668,None,-25595,11.42255973815918,-6,-5,0,-3,-2,-4,-2,-1,1756998699668205261
0,0.383364678,20250904111139683,None,-25597,9.518799781799316,-3,3,-2,-2,-2,0,5,-2,1756998699683099031
0,0.383491039,20250904111139683,None,-25597,9.518799781799316,-1,-3,-2,1,0,-1,-2,0,1756998699683272361
0,0.391070604,20250904111139691,None,-25597,9.04286003112793,-1,-2,-2,-3,-5,-3,-4,0,1756998699690575838
0,0.391252518,20250904111139691,None,-25597,9.04286003112793,-1,-2,-3,-1,0,3,9,-1,1756998699690701484
0,0.398610354,20250904111139698,None,-25599,12.612409591674805,0,4,2,2,-6,2,-2,4,1756998699698102235
0,0.39879036,20250904111139698,None,-25599,12.612409591674805,-1,-6,-2,-3,2,3,1,-2,1756998699698276042
0,0.413733244,20250904111139713,None,-25601,6.425189971923828,1,-7,-3,2,0,1,-1,0,1756998699713081598
0,0.413944721,20250904111139713,None,-25601,6.425189971923828,0,-2,-1,-1,-5,0,0,-3,1756998699713261127
0,0.421027899,20250904111139721,None,-25602,14.040229797363281,-1,-1,1,0,-1,0,-2,-3,1756998699720556020
0,0.42121625,20250904111139721,None,-25602,14.040229797363281,2,0,-2,-1,-1,-3,0,-2,1756998699720677375
0,0.428564549,20250904111139728,None,-25602,5.4733099937438965,-2,-4,-2,-1,-1,-1,1,2,1756998699728073120
0,0.428741932,20250904111139728,None,-25602,5.4733099937438965,-3,0,-2,-1,-2,-2,0,-1,1756998699728187561
0,0.443506003,20250904111139743,None,-25604,6.425189971923828,-2,4,-1,-3,-1,-1,0,1,1756998699743015050
0,0.443655253,20250904111139743,None,-25604,6.425189971923828,-1,1,1,-1,1,-1,-3,-4,1756998699743124485
0,0.450926542,20250904111139750,None,-25605,11.898499488830566,1,2,0,0,-1,-3,-1,2,1756998699750538825
0,0.451189995,20250904111139751,None,-25605,11.898499488830566,-4,-6,-1,-3,-1,-6,-6,-1,1756998699750679016
0,0.458320618,20250904111139758,None,-25606,11.898499488830566,-3,-5,-4,-3,-1,3,4,-4,1756998699758038759
0,0.45848465,20250904111139758,None,-25606,11.898499488830566,2,5,0,-1,-2,-1,3,1,1756998699758148193
0,0.473433495,20250904111139773,None,-25607,9.518799781799316,0,1,0,-1,-3,0,-1,-1,1756998699773049116
0,0.473634958,20250904111139773,None,-25607,9.518799781799316,-1,0,0,-1,2,-1,-2,-1,1756998699773200750
0,0.481281042,20250904111139781,None,-25609,11.898499488830566,-1,-6,-2,-1,-2,-2,-8,-3,1756998699780562400
0,0.481500387,20250904111139781,None,-25609,11.898499488830566,2,3,-3,-3,-3,3,8,0,1756998699780732154
0,0.488498449,20250904111139788,None,-25609,6.6631598472595215,-2,1,-1,-1,-2,-3,-2,0,1756998699788087606
0,0.488633871,20250904111139788,None,-25609,6.6631598472595215,0,0,0,1,1,-2,0,-3,1756998699788215875
0,0.503517151,20250904111139803,None,-25612,13.80225944519043,2,2,0,-1,-1,-2,-3,0,1756998699803092718
0,0.503658533,20250904111139803,None,-25612,13.80225944519043,-2,-1,0,-1,0,0,2,-3,1756998699803223133
0,0.510987759,20250904111139810,None,-25612,5.71127986907959,-2,-2,-1,1,-1,-2,-2,-3,1756998699810536384
0,0.511127949,20250904111139811,None,-25612,5.71127986907959,-1,0,0,-1,-1,-4,-5,-1,1756998699810655117
0,0.518728256,20250904111139818,None,-25613,14.040229797363281,-1,-1,3,1,-2,2,6,-1,1756998699818055391
0,0.518968821,20250904111139818,None,-25613,14.040229797363281,-2,0,-3,0,2,-2,-2,1,1756998699818171739
0,0.533704519,20250904111139833,None,-25615,12.374439239501953,2,3,3,-2,1,2,-2,-3,1756998699833066463
0,0.533940792,20250904111139833,None,-25615,12.374439239501953,-1,0,-2,0,-1,2,1,-2,1756998699833203554
0,0.541232824,20250904111139841,None,-25616,8.566919326782227,-1,-3,0,5,-4,-5,-1,0,1756998699840623855
0,0.54150033,20250904111139841,None,-25616,8.566919326782227,-2,0,0,0,-1,1,-3,-3,1756998699840746164
0,0.548750162,20250904111139848,None,-25616,8.566919326782227,3,1,-1,0,0,-3,-3,-1,1756998699848067760
0,0.548984766,20250904111139848,None,-25617,8.566919326782227,0,-3,-1,2,-1,1,3,0,1756998699848180532
0,0.563696623,20250904111139863,None,-25619,10.470680236816406,1,4,1,-1,-1,0,-4,-2,1756998699863095283
0,0.563894034,20250904111139863,None,-25619,10.470680236816406,0,1,-3,0,-3,0,1,0,1756998699863234043
0,0.571196079,20250904111139871,None,-25619,6.901129722595215,-2,-5,-1,3,-1,0,-3,0,1756998699870518922
0,0.571479798,20250904111139871,None,-25619,6.901129722595215,0,-1,0,-3,0,-1,-3,0,1756998699870637893
0,0.578614712,20250904111139878,None,-25621,13.564290046691895,-2,1,-2,0,-1,-3,-2,0,1756998699878029346
0,0.578803063,20250904111139878,None,-25621,13.564290046691895,-1,-2,0,0,-3,1,0,-1,1756998699878156661
0,0.593714953,20250904111139893,None,-25622,5.71127986907959,1,-1,-1,-3,0,-3,-8,-3,1756998699893100976
0,0.593891621,20250904111139893,None,-25622,5.71127986907959,0,3,2,-2,2,1,7,0,1756998699893269300
0,0.600960493,20250904111139900,None,-25623,14.278200149536133,1,1,1,1,-2,1,1,-2,1756998699900641679
0,0.601101399,20250904111139901,None,-25623,14.278200149536133,-3,1,2,-1,0,-1,0,1,1756998699900790214
0,0.608321667,20250904111139908,None,-25624,6.187219619750977,-3,-2,-2,0,-2,0,0,-2,1756998699908074140
0,0.608457327,20250904111139908,None,-25624,6.187219619750977,-7,-2,-3,0,-1,-2,-1,-4,1756998699908186197
0,0.623324394,20250904111139923,None,-25626,13.088349342346191,3,2,-4,-5,-2,-4,-2,-3,1756998699923059463
0,0.623431921,20250904111139923,None,-25626,13.088349342346191,0,-1,0,-3,0,1,4,0,1756998699923210382
0,0.630723238,20250904111139930,None,-25626,8.328949928283691,1,0,1,-2,1,-1,-2,0,1756998699930531978
0,0.630821943,20250904111139930,None,-25626,8.328949928283691,1,1,0,-1,0,-1,1,1,1756998699930642843
0,0.645789385,20250904111139945,None,-25629,11.184589385986328,1,4,-3,-3,-2,-1,0,-1,1756998699945517063
0,0.645944357,20250904111139945,None,-25629,11.184589385986328,0,-3,2,-1,0,-4,-8,-2,1756998699945640087
0,0.653313875,20250904111139953,None,-25629,7.615039825439453,-2,2,-1,2,0,6,13,1,1756998699953034400
0,0.653445482,20250904111139953,None,-25629,7.615039825439453,-3,-1,-5,0,1,0,0,0,1756998699953163862
0,0.66072011,20250904111139960,None,-25631,7.615039825439453,0,-5,-2,-2,1,-2,-4,-3,1756998699960522174
0,0.660816431,20250904111139960,None,-25631,7.615039825439453,3,1,0,2,0,1,7,0,1756998699960619926
0,0.675887823,20250904111139975,None,-25632,5.71127986907959,2,-1,1,0,0,-2,-5,-1,1756998699975603818
0,0.676012039,20250904111139975,None,-25632,5.71127986907959,-1,4,-1,0,0,-3,1,-1,1756998699975767612
0,0.683804989,20250904111139983,None,-25633,14.040229797363281,-4,-4,-1,-1,1,1,0,-5,1756998699983077287
0,0.684140444,20250904111139984,None,-25633,14.040229797363281,-3,1,0,-5,-1,-2,0,0,1756998699983218193
0,0.690932989,20250904111139990,None,-25634,5.71127986907959,1,-2,0,-1,-1,-3,-5,-1,1756998699990440368
0,0.691054344,20250904111139991,None,-25634,5.71127986907959,-3,-3,0,-1,-4,1,2,-2,1756998699990546703
0,0.706211567,20250904111140006,None,-25635,13.326319694519043,2,2,-2,-2,3,-2,0,-2,1756998700005580902
0,0.706452131,20250904111140006,None,-25635,13.326319694519043,0,-3,-3,0,-3,-2,1,-1,1756998700005739688
0,0.713582039,20250904111140013,None,-25636,8.09097957611084,-2,-2,-1,-1,0,1,-1,0,1756998700013046264
0,0.713776589,20250904111140013,None,-25636,8.09097957611084,0,5,0,-1,-2,-1,-3,-1,1756998700013175487
0,0.721406222,20250904111140021,None,-25637,10.708649635314941,2,-1,-3,-1,-1,-1,1,3,1756998700020645618
0,0.721714735,20250904111140021,None,-25637,10.708649635314941,-2,2,2,1,-1,-1,-1,0,1756998700020788431
0,0.736291409,20250904111140036,None,-25639,8.566919326782227,-3,-1,-2,0,-1,-1,-6,-3,1756998700035582780
0,0.736518622,20250904111140036,None,-25639,8.566919326782227,-2,-2,-3,0,-2,0,5,-1,1756998700035714626
0,0.743526697,20250904111140043,None,-25641,8.566919326782227,-1,-10,-3,0,3,1,2,0,1756998700042981386
0,0.743686915,20250904111140043,None,-25641,8.566919326782227,1,-1,-1,-1,-1,2,6,0,1756998700043074369
0,0.751067877,20250904111140051,None,-25641,12.850379943847656,1,2,2,-1,0,-4,-4,-1,1756998700050546884
0,0.751318693,20250904111140051,None,-25641,12.850379943847656,0,-1,-5,-3,0,1,-2,-3,1756998700050656318
0,0.766192913,20250904111140066,None,-25643,13.564290046691895,0,2,0,-2,-2,-3,-3,-3,1756998700065506935
0,0.76646328,20250904111140066,None,-25643,13.564290046691895,-3,-2,-3,0,-4,-4,-1,-4,1756998700065612792
0,0.773428202,20250904111140073,None,-25644,5.71127986907959,-2,-4,1,-1,0,1,1,-1,1756998700073015451
0,0.773499966,20250904111140073,None,-25644,5.71127986907959,1,1,0,4,-1,-2,-4,0,1756998700073112726
0,0.780732632,20250904111140080,None,-25645,5.71127986907959,0,5,0,-2,3,-1,3,0,1756998700080508708
0,0.78081584,20250904111140080,None,-25645,5.71127986907959,-4,0,-6,-3,-2,0,-3,-1,1756998700080614566
0,0.795986414,20250904111140095,None,-25646,6.901129722595215,-4,-4,1,-2,-1,0,-1,-2,1756998700095737695
0,0.796088219,20250904111140096,None,-25646,6.901129722595215,3,0,-1,1,-1,0,-4,1,1756998700095872879
0,0.80344224,20250904111140103,None,-25647,10.946619987487793,0,-3,-1,0,0,-1,-2,-2,1756998700103189229
0,0.803526879,20250904111140103,None,-25647,10.946619987487793,0,1,1,-1,0,2,-1,0,1756998700103338241
0,0.810875178,20250904111140110,None,-25648,9.518799781799316,0,1,0,-1,-1,1,2,-1,1756998700110648393
0,0.810969353,20250904111140110,None,-25648,9.518799781799316,0,0,-3,-2,-1,-3,-5,-1,1756998700110802888
0,0.82659936,20250904111140126,None,-25651,8.328949928283691,3,0,0,-2,-1,0,-2,-1,1756998700125755071
0,0.826822519,20250904111140126,None,-25651,8.328949928283691,-4,1,-1,-2,-1,-1,4,-1,1756998700125927686
0,0.833470583,20250904111140133,None,-25651,12.136469841003418,-5,-8,-3,-1,0,-1,2,0,1756998700133007764
0,0.833615542,20250904111140133,None,-25651,12.136469841003418,2,-5,0,-1,-3,-2,-7,0,1756998700133117198
0,0.841113806,20250904111140141,None,-25652,5.71127986907959,0,1,-1,3,3,3,9,0,1756998700140546321
0,0.841389179,20250904111140141,None,-25652,5.71127986907959,1,2,1,-1,-1,0,-1,0,1756998700140655279
0,0.856486321,20250904111140156,None,-25654,5.4733099937438965,2,-1,0,-4,-1,-1,-3,-1,1756998700155917882
0,0.856627703,20250904111140156,None,-25654,5.4733099937438965,-2,-2,-1,-4,-5,-2,-1,-1,1756998700156106948
0,0.863796234,20250904111140163,None,-25655,13.80225944519043,1,1,-2,-3,-3,0,-4,-1,1756998700163514852
0,0.863888502,20250904111140163,None,-25655,13.80225944519043,1,-2,-1,1,-3,0,3,-3,1756998700163714647
0,0.871330738,20250904111140171,None,-25656,13.80225944519043,-4,-1,0,1,-2,-2,0,0,1756998700171017169
0,0.871457577,20250904111140171,None,-25656,13.80225944519043,3,0,0,0,0,1,1,2,1756998700171217203
0,0.886187554,20250904111140186,None,-25657,11.184589385986328,-2,-6,-1,-3,-3,-1,0,0,1756998700185877084
0,0.886319637,20250904111140186,None,-25657,11.184589385986328,-4,0,-2,-3,-1,-1,0,-4,1756998700186104536
0,0.893718004,20250904111140193,None,-25658,9.280829429626465,-1,-3,0,1,-1,-5,-6,-3,1756998700193483829
0,0.893786669,20250904111140193,None,-25658,9.280829429626465,0,-1,-3,-4,0,2,-2,-2,1756998700193624734
0,0.901028395,20250904111140201,None,-25659,9.280829429626465,0,0,2,-2,3,5,6,0,1756998700200734138
0,0.901198626,20250904111140201,None,-25659,9.280829429626465,3,2,-4,0,1,0,2,-2,1756998700200873613
0,0.915903568,20250904111140215,None,-25661,12.612409591674805,-1,4,-1,-1,1,-1,-3,0,1756998700215687751
0,0.916001797,20250904111140215,None,-25661,12.612409591674805,0,-6,-2,-2,-3,-1,1,0,1756998700215833425
0,0.923552513,20250904111140223,None,-25662,6.187219619750977,-4,-6,0,3,-1,0,-3,-2,1756998700223187685
0,0.923654795,20250904111140223,None,-25662,6.187219619750977,0,-4,1,-1,0,-5,-3,0,1756998700223323822
0,0.930937767,20250904111140230,None,-25663,14.040229797363281,-1,0,-1,-2,2,0,1,-1,1756998700230714797
0,0.931023121,20250904111140231,None,-25663,14.040229797363281,2,3,-1,-1,0,-1,-4,-1,1756998700230861663
0,0.94592309,20250904111140245,None,-25665,5.4733099937438965,0,0,1,-2,0,1,1,2,1756998700245669364
0,0.946052313,20250904111140246,None,-25665,5.4733099937438965,0,2,-3,0,-2,-1,0,-1,1756998700245794773
0,0.953514815,20250904111140253,None,-25665,13.564290046691895,2,-2,1,1,1,2,-3,-2,1756998700253253936
0,0.953608513,20250904111140253,None,-25665,13.564290046691895,-3,-3,-2,1,0,-2,-2,-1,1756998700253423213
0,0.960909128,20250904111140260,None,-25666,5.949249744415283,2,0,1,-1,-2,-3,-3,1,1756998700260679483
0,0.96102643,20250904111140261,None,-25666,5.949249744415283,-2,-1,-1,0,-2,-1,2,-1,1756998700260820150
0,0.976004601,20250904111140275,None,-25668,9.04286003112793,-3,2,-1,-2,-1,-4,-2,1,1756998700275736331
0,0.97614646,20250904111140276,None,-25668,9.04286003112793,0,-1,-3,-2,0,2,2,2,1756998700275861501
0,0.983322382,20250904111140283,None,-25669,9.518799781799316,-3,-1,-1,-1,1,-1,-2,-4,1756998700283113718
0,0.983401537,20250904111140283,None,-25669,9.518799781799316,0,1,-1,0,0,1,4,-1,1756998700283250570
0,0.990844965,20250904111140290,None,-25669,9.518799781799316,-2,0,-3,-2,1,-5,-3,-3,1756998700290594816
0,0.99094677,20250904111140290,None,-25669,9.518799781799316,-5,-10,-1,1,0,0,-3,0,1756998700290757417
0,1.005804062,20250904111140305,None,-25671,6.901129722595215,-1,3,-3,-1,-3,0,-3,-2,1756998700305565595
0,1.005909443,20250904111140305,None,-25671,6.901129722595215,-1,-4,1,1,0,2,-1,0,1756998700305691719
0,1.013285637,20250904111140313,None,-25673,13.80225944519043,1,-3,3,3,1,-1,-2,-1,1756998700313041210
0,1.013376236,20250904111140313,None,-25673,13.80225944519043,-3,1,1,-1,-1,2,2,-2,1756998700313185930
0,1.02072382,20250904111140320,None,-25674,5.71127986907959,0,5,1,1,-2,1,-3,-1,1756998700320555686
0,1.020863295,20250904111140320,None,-25674,5.71127986907959,-1,0,-1,-4,-4,-4,-12,-2,1756998700320687770
0,1.03579545,20250904111140335,None,-25675,14.040229797363281,-3,1,0,-4,-1,6,10,1,1756998700335548639
0,1.035893917,20250904111140335,None,-25675,14.040229797363281,2,0,-1,-1,0,0,0,-1,1756998700335695981
0,1.043250561,20250904111140343,None,-25676,5.71127986907959,1,1,0,2,-3,-2,-4,0,1756998700343013048
0,1.043363333,20250904111140343,None,-25676,5.71127986907959,-3,-1,-3,-2,-1,-2,-2,2,1756998700343147039
0,1.050991535,20250904111140350,None,-25677,12.136469841003418,-3,2,-3,-2,0,0,-3,-2,1756998700350645542
0,1.051164866,20250904111140351,None,-25677,12.136469841003418,2,-2,-1,1,-3,-4,-7,-5,1756998700350825786
0,1.065885067,20250904111140365,None,-25679,8.566919326782227,2,2,1,0,3,1,4,2,1756998700365580797
0,1.066040039,20250904111140366,None,-25679,8.566919326782227,0,0,-2,3,1,0,0,2,1756998700365719079
0,1.073304176,20250904111140373,None,-25679,9.756770133972168,1,-5,-2,2,-1,-4,-2,-4,1756998700373048305
0,1.073412657,20250904111140373,None,-25679,9.756770133972168,0,1,-1,3,-2,1,-1,0,1756998700373175382
0,1.0809030530000001,20250904111140380,None,-25681,10.946619987487793,-4,-8,-2,-2,1,0,-2,-1,1756998700380622386
0,1.081081152,20250904111140381,None,-25681,10.946619987487793,-2,2,-1,-2,-2,-2,-1,0,1756998700380766630
0,1.095903397,20250904111140395,None,-25683,13.564290046691895,1,-1,0,-1,-4,2,-2,0,1756998700395617961
0,1.096068621,20250904111140396,None,-25683,13.564290046691895,-3,0,-4,-2,-2,-3,-4,-2,1756998700395758628
0,1.103385925,20250904111140403,None,-25684,5.71127986907959,-2,4,-3,-3,3,-1,2,3,1756998700403064489
0,1.103494644,20250904111140403,None,-25684,5.71127986907959,-5,-6,-4,1,2,-2,-2,0,1756998700403168201
0,1.111007452,20250904111140410,None,-25684,5.71127986907959,2,2,0,-3,-3,1,0,1,1756998700410717487
0,1.1111347679999999,20250904111140411,None,-25684,5.71127986907959,0,0,0,0,-2,-4,-1,-1,1756998700410915374
0,1.125729561,20250904111140425,None,-25686,5.4733099937438965,0,-1,0,0,-4,-1,1,-1,1756998700425489425
0,1.125841618,20250904111140425,None,-25686,5.4733099937438965,-1,0,-2,0,-3,-1,-3,0,1756998700425604581
0,1.133114338,20250904111140433,None,-25687,12.612409591674805,-3,-2,-2,-4,-1,1,0,1,1756998700432920217
0,1.133199692,20250904111140433,None,-25687,12.612409591674805,0,-2,-4,-2,-1,0,0,0,1756998700433010339
0,1.1408760550000001,20250904111140440,None,-25688,7.615039825439453,-2,-2,-2,-3,2,-1,2,-2,1756998700440494298
0,1.141013384,20250904111140440,None,-25688,7.615039825439453,-1,-1,0,1,0,-2,-4,-1,1756998700440607786
0,1.156346798,20250904111140456,None,-25689,9.994739532470703,2,-2,0,1,-1,-3,0,-2,1756998700455720663
0,1.15659833,20250904111140456,None,-25689,9.994739532470703,-4,-4,-2,-4,-2,-2,-2,0,1756998700455933332
0,1.163576365,20250904111140463,None,-25690,9.756770133972168,-1,-1,0,-2,-3,-1,-5,-4,1756998700463069200
0,1.16373992,20250904111140463,None,-25690,9.756770133972168,0,2,0,-2,-1,1,-1,-4,1756998700463258266
0,1.17099309,20250904111140470,None,-25691,7.139100074768066,0,-3,1,0,0,0,6,3,1756998700470545053
0,1.17113924,20250904111140471,None,-25691,7.139100074768066,-2,-2,-2,0,1,-2,-3,-2,1756998700470666170
0,1.194535971,20250904111140494,None,-25694,5.4733099937438965,-2,1,-1,1,-2,0,1,2,1756998700493948459
0,1.19472909,20250904111140494,None,-25694,5.4733099937438965,3,1,0,-5,0,0,-2,1,1756998700494126796
0,1.195011616,20250904111140495,None,-25695,5.4733099937438965,5,2,2,4,-3,1,-2,-2,1756998700494709730
0,1.195127726,20250904111140495,None,-25695,5.4733099937438965,-2,-3,2,0,-3,2,3,0,1756998700494834661
0,1.201124668,20250904111140501,None,-25695,13.80225944519043,-3,-2,1,-4,-2,-3,-2,-1,1756998700500838994
0,1.201402426,20250904111140501,None,-25695,13.80225944519043,-1,-3,-1,-2,1,0,-4,-1,1756998700501022815
0,1.215984345,20250904111140515,None,-25697,12.850379943847656,-1,-2,-2,-2,-2,-2,7,-1,1756998700515703439
0,1.216153622,20250904111140516,None,-25697,12.850379943847656,5,1,-2,1,-1,-6,-6,-1,1756998700515843391
0,1.22336793,20250904111140523,None,-25698,12.850379943847656,-3,0,-3,-1,-1,2,7,3,1756998700523096323
0,1.223471403,20250904111140523,None,-25698,12.850379943847656,-1,-7,-4,-3,-1,0,-1,-1,1756998700523252248
0,1.231234551,20250904111140531,None,-25698,6.6631598472595215,-2,-1,-2,-1,1,-5,-3,-1,1756998700530954837
0,1.231379509,20250904111140531,None,-25698,6.6631598472595215,1,1,0,-2,-1,-3,-4,-1,1756998700531161785
0,1.246331692,20250904111140546,None,-25700,9.994739532470703,-1,1,-1,-1,-1,-1,-4,0,1756998700546042442
0,1.246461153,20250904111140546,None,-25700,9.994739532470703,-1,-6,-3,2,-1,-4,-2,3,1756998700546272039
0,1.253821373,20250904111140553,None,-25701,7.615039825439453,1,4,-1,0,-3,1,-1,2,1756998700553550004
0,1.253931046,20250904111140553,None,-25701,7.615039825439453,-1,-1,-1,1,0,-1,-2,-2,1756998700553728818
0,1.261318922,20250904111140561,None,-25703,7.615039825439453,-1,-4,1,-1,-1,2,3,2,1756998700561014413
0,1.261543274,20250904111140561,None,-25703,12.612409591674805,1,1,-2,-4,-2,1,-1,-1,1756998700561223030
0,1.276349068,20250904111140576,None,-25704,5.4733099937438965,-2,-2,2,-2,-2,-3,0,-2,1756998700575984477
0,1.276562452,20250904111140576,None,-25704,5.4733099937438965,0,2,0,-1,1,-3,-3,-1,1756998700576207637
0,1.28357172,20250904111140583,None,-25705,13.564290046691895,-3,0,-4,-2,1,2,-1,0,1756998700583296060
0,1.283694267,20250904111140583,None,-25705,13.564290046691895,-4,-3,-3,-1,-2,0,-3,-2,1756998700583462715
0,1.290901423,20250904111140590,None,-25706,5.235340118408203,0,0,1,-1,1,1,8,0,1756998700590668201
0,1.291502476,20250904111140591,None,-25706,5.235340118408203,1,-1,-4,-1,-3,-1,-2,-3,1756998700590791702
0,1.306620598,20250904111140606,None,-25708,7.139100074768066,2,3,3,1,-1,3,-1,-1,1756998700605727910
0,1.306898832,20250904111140606,None,-25708,7.139100074768066,0,0,0,0,-4,-1,-5,-1,1756998700605852603
0,1.313862562,20250904111140613,None,-25708,7.139100074768066,-4,-1,-1,-2,-2,3,-3,0,1756998700613202333
0,1.314136267,20250904111140614,None,-25709,7.139100074768066,-2,0,-1,0,1,-1,-4,-2,1756998700613335132
0,1.321408034,20250904111140621,None,-25709,10.946619987487793,0,-1,0,2,3,-1,1,-1,1756998700620726108
0,1.321626425,20250904111140621,None,-25709,10.946619987487793,-3,-7,0,0,-1,0,-2,-4,1756998700620844125
0,1.33641386,20250904111140636,None,-25711,9.04286003112793,0,2,-2,3,-1,-4,1,0,1756998700635686635
0,1.336578369,20250904111140636,None,-25711,9.04286003112793,-2,-4,-2,-2,-2,2,0,-5,1756998700635802507
0,1.343920946,20250904111140643,None,-25713,9.04286003112793,1,-2,-3,0,0,-3,0,-2,1756998700643213748
0,1.3442194459999999,20250904111140644,None,-25713,12.374439239501953,2,0,-2,0,-2,0,1,-1,1756998700643354415
0,1.3513753419999999,20250904111140651,None,-25714,12.374439239501953,2,-1,2,0,1,-1,-2,0,1756998700650680303
0,1.351615906,20250904111140651,None,-25714,12.374439239501953,-3,-3,-3,-2,-1,-1,-4,1,1756998700650804758
0,1.366538048,20250904111140666,None,-25715,13.564290046691895,0,-4,-3,1,0,-2,0,0,1756998700665798187
0,1.366821766,20250904111140666,None,-25715,13.564290046691895,1,0,-3,0,-3,-3,-1,-1,1756998700665933609
0,1.374001026,20250904111140674,None,-25716,5.235340118408203,0,0,-1,1,-1,0,-2,-1,1756998700673327922
0,1.37421608,20250904111140674,None,-25716,5.235340118408203,1,0,2,0,-1,-4,0,-1,1756998700673451423
0,1.3813920020000001,20250904111140681,None,-25717,13.326319694519043,-4,-1,1,-1,4,3,-4,-2,1756998700680704116
0,1.3816394810000001,20250904111140681,None,-25717,13.326319694519043,-4,-2,2,2,-1,-4,-6,-1,1756998700680817604
0,1.396384001,20250904111140696,None,-25718,6.425189971923828,-1,-4,-4,-4,-1,0,-1,-3,1756998700695727825
0,1.396586418,20250904111140696,None,-25718,6.425189971923828,2,3,0,-1,0,1,3,2,1756998700695837497
0,1.403778315,20250904111140703,None,-25719,11.184589385986328,-2,6,1,-2,0,0,-2,-2,1756998700703162908
0,1.403976917,20250904111140703,None,-25719,11.184589385986328,-5,-10,-1,1,-1,-2,-6,-3,1756998700703253030
0,1.411414862,20250904111140711,None,-25720,9.280829429626465,-1,-4,3,2,1,4,9,2,1756998700710681200
0,1.411608219,20250904111140711,None,-25720,9.280829429626465,-3,-1,-5,-3,0,-4,-11,-5,1756998700710803508
0,1.426698685,20250904111140726,None,-25723,8.804889678955078,0,-2,0,-1,-1,2,12,0,1756998700726019144
0,1.42696929,20250904111140726,None,-25723,8.804889678955078,-1,1,-2,1,0,1,1,-2,1756998700726317167
0,1.434357405,20250904111140734,None,-25724,12.374439239501953,-1,1,-2,0,-1,-2,-2,-2,1756998700733583927
0,1.434619188,20250904111140734,None,-25724,12.374439239501953,0,0,-2,-2,-1,-2,-4,3,1756998700733758211
0,1.441184521,20250904111140741,None,-25724,6.901129722595215,-3,-5,-1,1,-3,-2,-4,-2,1756998700740808725
0,1.441538811,20250904111140741,None,-25724,6.901129722595215,0,-3,0,-2,-1,-5,0,-2,1756998700740958213
0,1.456601381,20250904111140756,None,-25726,5.4733099937438965,0,-3,-1,0,1,-1,-3,-2,1756998700755855321
0,1.456798077,20250904111140756,None,-25726,5.4733099937438965,1,3,-2,-2,0,1,3,0,1756998700756041765
0,1.472172976,20250904111140772,None,-25727,13.564290046691895,0,-3,2,1,0,-2,-4,0,1756998700771477699
0,1.47239852,20250904111140772,None,-25727,13.564290046691895,0,-5,-4,-1,0,0,0,2,1756998700771649599
0,1.472599507,20250904111140772,None,-25728,13.564290046691895,-2,2,-1,2,1,-2,-3,-3,1756998700772255182
0,1.4727175240000001,20250904111140772,None,-25728,13.564290046691895,3,0,1,-1,0,0,-3,2,1756998700772451162
0,1.486367464,20250904111140786,None,-25729,11.660530090332031,-3,6,0,2,0,-1,-1,-1,1756998700785765886
0,1.486645937,20250904111140786,None,-25729,11.660530090332031,-2,-6,-1,-2,0,-3,-3,-4,1756998700785968780
0,1.49391985,20250904111140793,None,-25730,9.04286003112793,-2,-2,-1,1,-1,0,3,-1,1756998700793180465
0,1.494140148,20250904111140794,None,-25730,9.04286003112793,0,0,2,0,-1,2,-1,3,1756998700793374300
0,1.5013704300000001,20250904111140801,None,-25731,9.518799781799316,2,-1,0,-4,0,-2,-1,2,1756998700800672531
0,1.501619101,20250904111140801,None,-25731,9.518799781799316,0,2,-1,-4,0,-1,-1,-1,1756998700800849199
0,1.5163509849999999,20250904111140816,None,-25733,11.898499488830566,-4,-3,-2,1,2,-1,-1,-2,1756998700815618753
0,1.516680718,20250904111140816,None,-25733,11.898499488830566,1,1,0,-2,-1,1,-2,-1,1756998700815742731
0,1.523808241,20250904111140823,None,-25734,6.901129722595215,-1,-3,1,-3,-2,-3,-7,1,1756998700823110818
0,1.524029494,20250904111140824,None,-25734,6.901129722595215,3,-2,-2,0,-1,2,0,0,1756998700823249578
0,1.53122282,20250904111140831,None,-25735,13.80225944519043,-1,3,0,3,0,2,4,0,1756998700830641508
0,1.531473637,20250904111140831,None,-25735,13.80225944519043,1,0,-3,-1,-3,-2,-3,-1,1756998700830759286
0,1.546295881,20250904111140846,None,-25737,14.040229797363281,-4,1,2,2,-2,1,-2,-1,1756998700845577478
0,1.546515942,20250904111140846,None,-25737,14.040229797363281,-5,-3,-1,-4,0,-4,-3,2,1756998700845695734
0,1.5537695889999998,20250904111140853,None,-25737,14.040229797363281,1,-3,2,-3,1,1,6,-2,1756998700853075027
0,1.554015637,20250904111140854,None,-25737,14.040229797363281,-4,-8,-2,-3,-1,-1,4,1,1756998700853188037
0,1.561573267,20250904111140861,None,-25738,6.187219619750977,1,2,-2,2,-4,-6,-4,0,1756998700860596179
0,1.561867714,20250904111140861,None,-25738,6.187219619750977,-1,8,-2,-1,0,-1,1,1,1756998700860720396
0,1.576412916,20250904111140876,None,-25740,8.804889678955078,-4,-7,-1,-1,-2,0,-4,-1,1756998700875663757
0,1.576658487,20250904111140876,None,-25740,8.804889678955078,-3,-6,-2,-1,2,-1,-1,0,1756998700875806093
0,1.583833456,20250904111140883,None,-25741,8.804889678955078,-1,3,1,-1,1,-3,-8,-7,1756998700883150815
0,1.584054232,20250904111140884,None,-25741,8.804889678955078,-3,1,0,4,0,2,2,-3,1756998700883264541
0,1.5988521580000001,20250904111140898,None,-25743,11.184589385986328,1,-5,-2,1,0,-4,5,-1,1756998700898129463
0,1.599092722,20250904111140899,None,-25743,11.184589385986328,1,0,-1,0,1,-1,0,-3,1756998700898263454
0,1.606082201,20250904111140906,None,-25743,6.901129722595215,-1,2,-1,3,0,2,-2,1,1756998700905531883
0,1.6063055990000001,20250904111140906,None,-25743,6.901129722595215,-1,-2,-2,-1,0,1,-1,-1,1756998700905633211
0,1.613713265,20250904111140913,None,-25745,13.80225944519043,0,5,-1,1,0,-3,-3,-3,1756998700913064002
0,1.613912344,20250904111140913,None,-25745,13.80225944519043,2,2,-3,2,-1,-1,0,2,1756998700913172721
0,1.628817797,20250904111140928,None,-25746,5.71127986907959,-1,1,-1,0,-1,3,3,0,1756998700928096532
0,1.6290562149999999,20250904111140929,None,-25746,5.71127986907959,0,-4,0,-1,1,-1,-1,-2,1756998700928253412
0,1.636449099,20250904111140936,None,-25747,14.040229797363281,-1,-1,-1,0,0,-4,-1,-4,1756998700935719490
0,1.636694431,20250904111140936,None,-25747,14.040229797363281,3,-4,-1,-2,-2,-1,-2,-1,1756998700935882329
0,1.643806219,20250904111140943,None,-25748,6.187219619750977,1,2,-1,-5,3,0,-1,-1,1756998700943126678
0,1.644020796,20250904111140944,None,-25748,6.187219619750977,-1,4,-3,-3,-1,-1,-5,-1,1756998700943255662
0,1.658943176,20250904111140958,None,-25750,8.566919326782227,-1,-3,2,0,2,-1,2,0,1756998700958161830
0,1.659190178,20250904111140959,None,-25750,8.566919326782227,-1,-10,0,-4,-3,-6,-8,-2,1756998700958307027
0,1.6663751599999999,20250904111140966,None,-25751,8.566919326782227,2,0,0,2,-1,4,17,3,1756998700965634346
0,1.6665937899999999,20250904111140966,None,-25751,8.566919326782227,1,0,0,0,-3,-1,3,-2,1756998700965774297
0,1.6738753320000002,20250904111140973,None,-25752,10.232709884643555,1,0,-1,0,-4,-2,-4,-3,1756998700973199367
0,1.674073935,20250904111140974,None,-25752,10.232709884643555,0,1,-1,-6,-1,0,-5,-1,1756998700973340988
0,1.689533472,20250904111140989,None,-25753,7.615039825439453,-2,-1,-3,-6,-2,-2,-2,1,1756998700988591194
0,1.689864874,20250904111140989,None,-25753,7.615039825439453,-1,-2,1,1,-1,-1,-1,-1,1756998700988732099
0,1.7045378690000001,20250904111141004,None,-25756,5.949249744415283,-4,-10,0,2,-1,0,0,0,1756998701003861904
0,1.7047564990000001,20250904111141004,None,-25756,5.949249744415283,-1,1,0,0,-1,0,-6,-2,1756998701003994464
0,1.704916954,20250904111141004,None,-25756,5.949249744415283,-3,-1,-3,-5,-1,4,3,0,1756998701004535198
0,1.7052357200000001,20250904111141005,None,-25756,5.949249744415283,-3,1,-2,-2,2,-2,1,1,1756998701004682302
0,1.718769312,20250904111141018,None,-25757,14.278200149536133,-2,1,-1,1,1,0,-1,-4,1756998701018156290
0,1.719019652,20250904111141019,None,-25757,14.278200149536133,1,4,2,0,-1,-2,0,-5,1756998701018261909
0,1.726239681,20250904111141026,None,-25758,5.949249744415283,4,2,3,3,-3,-3,-4,-2,1756998701025583267
0,1.726787806,20250904111141026,None,-25758,5.949249744415283,-3,1,0,1,0,-1,-2,-4,1756998701025700330
0,1.733772278,20250904111141033,None,-25759,13.326319694519043,0,-2,-5,-2,-3,-1,0,0,1756998701033067464
0,1.733999729,20250904111141033,None,-25759,13.326319694519043,-1,-4,1,-1,-2,-3,0,2,1756998701033191919
0,1.7488837240000001,20250904111141048,None,-25761,8.09097957611084,-1,-2,-1,-5,-2,-3,-1,-1,1756998701048151016
0,1.749156475,20250904111141049,None,-25761,10.946619987487793,-2,2,0,2,-3,-2,-1,-2,1756998701048255681
0,1.756175518,20250904111141056,None,-25761,10.946619987487793,1,0,1,1,0,1,-2,1,1756998701055556058
0,1.756450176,20250904111141056,None,-25761,10.946619987487793,0,2,-2,-1,-3,1,-4,-3,1756998701055669784
0,1.7637436389999999,20250904111141063,None,-25762,10.470680236816406,-3,-6,1,0,-2,0,1,-2,1756998701063089609
0,1.763968706,20250904111141063,None,-25762,10.470680236816406,-3,-1,0,-1,-2,-2,-5,-2,1756998701063215017
0,1.778819084,20250904111141078,None,-25765,13.088349342346191,3,-1,-1,-1,0,0,9,3,1756998701078104972
0,1.779058457,20250904111141079,None,-25765,13.088349342346191,2,1,-3,0,-2,-6,-3,-3,1756998701078263044
0,1.794652224,20250904111141094,None,-25767,5.71127986907959,-4,0,0,-5,-4,-4,-5,-2,1756998701093882560
0,1.794893742,20250904111141094,None,-25767,5.71127986907959,-3,-1,-1,0,-1,0,-2,-3,1756998701094034910
0,1.795075894,20250904111141095,None,-25767,5.71127986907959,-2,2,-1,-1,-2,-1,1,-1,1756998701094580888
0,1.795224428,20250904111141095,None,-25767,5.71127986907959,2,0,2,-1,0,-3,-6,0,1756998701094697237
0,1.808782578,20250904111141108,None,-25768,5.71127986907959,-1,-2,0,-1,2,-1,1,2,1756998701108101606
0,1.8090295790000002,20250904111141109,None,-25768,5.71127986907959,-2,-5,-1,-4,0,0,-1,0,1756998701108237981
0,1.816376448,20250904111141116,None,-25769,13.564290046691895,-2,5,-2,-3,-2,-4,-3,0,1756998701115764617
0,1.816533804,20250904111141116,None,-25769,13.564290046691895,-4,-9,-4,-1,0,-1,-5,-4,1756998701115885496
0,1.8238773350000002,20250904111141123,None,-25770,7.615039825439453,0,2,0,-3,-1,0,0,-1,1756998701123205661
0,1.8240826129999999,20250904111141124,None,-25770,7.615039825439453,3,1,-3,-2,0,-1,-2,0,1756998701123331069
0,1.838974476,20250904111141138,None,-25771,11.184589385986328,-1,1,-1,0,3,-2,0,-2,1756998701138319253
0,1.8392145640000002,20250904111141139,None,-25771,11.184589385986328,1,-4,-2,-3,-1,1,-1,-2,1756998701138451814
0,1.846480608,20250904111141146,None,-25772,9.04286003112793,-1,-2,0,-2,-4,-2,1,4,1756998701145768642
0,1.846684218,20250904111141146,None,-25772,9.04286003112793,-2,3,-3,2,-1,-1,0,-2,1756998701145888566
0,1.853726864,20250904111141153,None,-25773,8.566919326782227,3,-1,-1,1,1,4,-5,0,1756998701153157472
0,1.853941441,20250904111141153,None,-25773,8.566919326782227,1,3,-2,-1,0,5,3,0,1756998701153258800
0,1.8688402179999999,20250904111141168,None,-25776,13.088349342346191,0,0,-2,0,-2,-1,-1,1,1756998701168170213
0,1.869057417,20250904111141169,None,-25776,13.088349342346191,-1,-3,0,-3,0,-1,1,1,1756998701168327093
0,1.8765983579999999,20250904111141176,None,-25776,6.187219619750977,0,-4,-3,-1,-1,0,-2,-2,1756998701175707101
0,1.8768997189999999,20250904111141176,None,-25776,6.187219619750977,-1,-2,0,-3,1,-2,-3,-3,1756998701175826787
0,1.883978129,20250904111141183,None,-25777,14.278200149536133,2,1,-1,1,1,0,2,-3,1756998701183248996
0,1.8841922279999999,20250904111141184,None,-25777,14.278200149536133,0,2,-3,2,-1,0,1,-1,1756998701183379650
0,1.89900589,20250904111141199,None,-25779,13.80225944519043,-5,-9,0,-1,-1,1,1,0,1756998701198320627
0,1.899248123,20250904111141199,None,-25779,13.80225944519043,0,3,-3,-1,-3,-3,-3,-2,1756998701198463678
0,1.90648365,20250904111141206,None,-25780,13.80225944519043,2,1,-2,2,0,3,1,-1,1756998701205776929
0,1.9067389970000002,20250904111141206,None,-25780,7.37706995010376,-3,-2,-5,-3,-3,-1,-7,-1,1756998701205912113
0,1.913818836,20250904111141213,None,-25780,7.37706995010376,1,4,0,-1,0,1,-4,0,1756998701213138341
0,1.914071083,20250904111141214,None,-25780,7.37706995010376,-2,-1,0,0,-1,2,11,2,1756998701213259696
0,1.928785086,20250904111141228,None,-25782,9.756770133972168,-6,-4,-1,-2,-1,-1,-2,-3,1756998701228109359
0,1.929004431,20250904111141228,None,-25782,9.756770133972168,-2,-3,-1,-1,-1,-3,-5,-3,1756998701228253364
0,1.936116219,20250904111141236,None,-25783,9.518799781799316,0,2,-2,-1,0,2,6,0,1756998701235548496
0,1.9363055230000001,20250904111141236,None,-25783,9.518799781799316,-1,-3,-1,1,-2,-4,-3,-2,1756998701235688686
0,1.943327665,20250904111141243,None,-25785,12.850379943847656,-1,-2,-4,-1,-1,-3,-3,-3,1756998701243015766
0,1.9434583189999999,20250904111141243,None,-25785,12.850379943847656,-2,0,-2,-4,-2,1,-2,0,1756998701243128299
0,1.9588844779999999,20250904111141258,None,-25786,6.6631598472595215,-1,-1,3,-3,-1,-2,-5,-1,1756998701258145332
0,1.959105015,20250904111141259,None,-25786,6.6631598472595215,-1,-4,0,1,-1,0,2,0,1756998701258264541
0,1.966405153,20250904111141266,None,-25787,14.278200149536133,-2,3,-1,1,0,-3,1,-3,1756998701265636920
0,1.966650248,20250904111141266,None,-25787,14.278200149536133,1,1,0,-4,0,-3,-4,0,1756998701265777111
0,1.973883867,20250904111141273,None,-25788,5.71127986907959,-3,-10,-2,0,1,-1,-3,0,1756998701273175001
0,1.974113703,20250904111141274,None,-25788,5.71127986907959,-4,-1,0,1,-2,3,10,2,1756998701273368597
0,1.988964319,20250904111141288,None,-25789,14.278200149536133,0,6,-1,-1,-2,2,-2,-1,1756998701288198232
0,1.989317417,20250904111141289,None,-25790,14.278200149536133,2,-2,-2,0,1,-4,0,-1,1756998701288401842
0,1.996235371,20250904111141296,None,-25790,6.6631598472595215,0,3,1,2,1,0,2,2,1756998701295566320
0,1.99649334,20250904111141296,None,-25790,6.6631598472595215,-2,-5,-2,1,-1,-2,-2,-1,1756998701295703649
0,2.003773451,20250904111141303,None,-25791,12.612409591674805,-4,1,0,-4,0,0,-2,0,1756998701303079605
0,2.003980398,20250904111141303,None,-25791,12.612409591674805,-3,-4,-1,-4,1,-1,-3,0,1756998701303212881
0,2.018924236,20250904111141318,None,-25793,9.994739532470703,-4,0,2,2,-3,-1,-4,-3,1756998701318208694
0,2.019141913,20250904111141319,None,-25793,9.994739532470703,0,-4,0,2,1,-2,-1,3,1756998701318383455
0,2.026203633,20250904111141326,None,-25795,9.994739532470703,1,-1,0,1,-2,-2,0,0,1756998701325627326
0,2.026439428,20250904111141326,None,-25795,9.994739532470703,-1,-1,-1,-3,2,0,2,1,1756998701325758457
0,2.033729553,20250904111141333,None,-25795,12.136469841003418,1,1,-2,-1,-1,-1,-3,0,1756998701333060026
0,2.033953905,20250904111141333,None,-25795,12.136469841003418,0,0,-2,-2,0,-3,1,-1,1756998701333180665
0,2.048813343,20250904111141348,None,-25797,13.80225944519043,1,1,-3,-1,-2,-1,1,-4,1756998701348121404
0,2.049141884,20250904111141349,None,-25797,13.80225944519043,1,-4,-4,0,2,0,1,-1,1756998701348256826
0,2.056442261,20250904111141356,None,-25798,5.71127986907959,2,0,-1,-3,-1,-2,-1,-1,1756998701355644941
0,2.05666399,20250904111141356,None,-25798,5.71127986907959,-4,-6,-2,-2,-5,-2,-3,-1,1756998701355808258
0,2.063807011,20250904111141363,None,-25799,14.040229797363281,-2,1,-2,0,-2,-1,-5,-1,1756998701363109350
0,2.064060211,20250904111141364,None,-25799,14.040229797363281,1,3,-1,3,-1,4,14,4,1756998701363256931
0,2.078778744,20250904111141378,None,-25800,5.949249744415283,-2,-4,-1,0,1,-2,-2,-3,1756998701378086566
0,2.078993797,20250904111141378,None,-25800,5.949249744415283,-1,0,-2,0,-2,-1,-1,-3,1756998701378246545
0,2.086336136,20250904111141386,None,-25801,12.612409591674805,-1,-1,1,-1,-3,-4,0,0,1756998701385607481
0,2.086537838,20250904111141386,None,-25801,12.612409591674805,-1,0,0,-3,-1,-1,2,-2,1756998701385736465
0,2.093747139,20250904111141393,None,-25802,8.09097957611084,0,-3,0,-1,-2,-2,1,-2,1756998701393093109
0,2.093972683,20250904111141393,None,-25802,8.09097957611084,1,-2,0,-4,1,4,-1,-2,1756998701393204450
0,2.108774185,20250904111141408,None,-25805,9.994739532470703,1,1,1,-1,0,-3,-3,0,1756998701408081769
0,2.108989954,20250904111141408,None,-25805,9.994739532470703,-3,-7,-1,0,0,-4,-2,-1,1756998701408212423
0,2.116214276,20250904111141416,None,-25805,11.42255973815918,-1,0,-1,-3,-1,-3,-1,0,1756998701415577173
0,2.116441965,20250904111141416,None,-25805,11.42255973815918,1,1,1,-1,-3,0,0,0,1756998701415686607
0,2.12375021,20250904111141423,None,-25805,7.139100074768066,2,1,4,0,-1,0,0,-3,1756998701423068046
0,2.123965979,20250904111141423,None,-25805,7.139100074768066,-2,-2,-2,1,-4,-2,0,0,1756998701423192739
0,2.138848066,20250904111141438,None,-25808,5.71127986907959,-3,0,2,-3,-2,-1,-2,-1,1756998701438174724
0,2.139020443,20250904111141439,None,-25808,5.71127986907959,0,5,3,-2,1,0,-2,2,1756998701438329935
0,2.146232844,20250904111141446,None,-25809,14.278200149536133,-3,-7,1,-4,0,0,1,-3,1756998701445603132
0,2.146776438,20250904111141446,None,-25809,14.278200149536133,2,0,-3,0,-2,-4,0,-4,1756998701445739269
0,2.153757811,20250904111141453,None,-25809,14.278200149536133,2,0,0,-1,1,-2,0,-1,1756998701453142642
0,2.153971672,20250904111141453,None,-25809,14.278200149536133,-4,-4,-2,-1,-3,-5,-13,-4,1756998701453262567
0,2.168826342,20250904111141468,None,-25811,12.850379943847656,0,0,-1,3,1,5,16,1,1756998701468110561
0,2.16904521,20250904111141469,None,-25811,12.850379943847656,-4,0,1,0,-1,0,1,-1,1756998701468250989
0,2.176491976,20250904111141476,None,-25812,8.328949928283691,4,-1,0,-3,-3,-3,-6,-4,1756998701475721836
0,2.176664829,20250904111141476,None,-25812,8.328949928283691,-4,-5,-4,-4,0,-2,-4,-2,1756998701475860834
0,2.19131136,20250904111141491,None,-25813,10.232709884643555,-3,-3,-3,2,-1,-2,-3,0,1756998701490603685
0,2.191535235,20250904111141491,None,-25813,10.232709884643555,2,5,0,-1,-2,-1,0,-1,1756998701490750312
0,2.198870182,20250904111141498,None,-25815,10.946619987487793,1,-7,-2,0,3,-1,-1,1,1756998701498172998
0,2.199182511,20250904111141499,None,-25815,10.946619987487793,-2,-3,0,0,1,-2,-5,-3,1756998701498318195
0,2.206312657,20250904111141506,None,-25815,7.139100074768066,2,0,-1,0,0,5,7,3,1756998701505610227
0,2.206623793,20250904111141506,None,-25815,7.139100074768066,0,-1,-2,-1,-3,0,0,-1,1756998701505734205
0,2.213723898,20250904111141513,None,-25817,12.850379943847656,2,-3,-1,1,-2,-1,-2,-1,1756998701513112068
0,2.213904381,20250904111141513,None,-25817,12.850379943847656,0,4,0,-1,-2,2,-3,1,1756998701513245105
0,2.228514433,20250904111141528,None,-25819,5.71127986907959,-4,2,-1,-2,0,-1,0,-1,1756998701528081655
0,2.228634596,20250904111141528,None,-25819,5.71127986907959,-4,-6,-1,0,-2,2,-1,-2,1756998701528201580
0,2.235845566,20250904111141535,None,-25819,14.040229797363281,-2,-3,-1,-1,2,-1,2,-1,1756998701535536527
0,2.235986471,20250904111141535,None,-25819,14.040229797363281,0,2,-2,-1,-2,1,-3,1,1756998701535677433
0,2.243608236,20250904111141543,None,-25820,5.71127986907959,1,-1,1,-4,-1,-1,-1,-1,1756998701543126821
0,2.243790865,20250904111141543,None,-25820,5.71127986907959,-1,1,-2,-1,-1,1,-1,1,1756998701543259859
0,2.258836746,20250904111141558,None,-25822,8.09097957611084,-3,-3,-1,-3,-2,-2,-2,-2,1756998701558222055
0,2.259073973,20250904111141559,None,-25822,8.09097957611084,-1,-3,-2,2,0,-1,-3,-1,1756998701558532714
0,2.265949488,20250904111141565,None,-25823,8.09097957611084,1,3,-1,-1,0,1,1,1,1756998701565653324
0,2.266080618,20250904111141566,None,-25823,8.09097957611084,-4,1,2,2,-2,1,2,-2,1756998701565867424
0,2.273441076,20250904111141573,None,-25823,10.946619987487793,2,2,1,-3,0,0,-1,0,1756998701573135852
0,2.273922205,20250904111141573,None,-25823,10.946619987487793,0,0,1,-1,0,0,3,-2,1756998701573289632
0,2.28882432,20250904111141588,None,-25825,8.566919326782227,-2,-8,-1,0,0,-2,-3,-5,1756998701588112115
0,2.289040566,20250904111141589,None,-25825,8.566919326782227,-3,-3,-3,-1,1,-1,-3,2,1756998701588258743
0,2.304310322,20250904111141604,None,-25828,5.71127986907959,0,1,-1,2,1,-2,3,-3,1756998701603701353
0,2.304489136,20250904111141604,None,-25828,5.71127986907959,-1,1,-2,0,-1,-2,-2,-1,1756998701603819608
0,2.304863691,20250904111141604,None,-25828,5.71127986907959,0,3,0,-2,3,-2,-1,1,1756998701604508876
0,2.305015564,20250904111141605,None,-25828,5.71127986907959,-3,-4,-2,-1,3,1,2,-2,1756998701604637622
0,2.318841934,20250904111141618,None,-25829,14.040229797363281,-2,-1,0,1,1,-4,-5,-3,1756998701618174791
0,2.319055081,20250904111141619,None,-25829,14.040229797363281,0,1,-1,-1,-4,-1,2,-1,1756998701618346929
0,2.326071501,20250904111141626,None,-25830,5.4733099937438965,-2,2,0,-1,-3,-2,-6,-2,1756998701625540018
0,2.326285124,20250904111141626,None,-25830,5.4733099937438965,-3,3,-1,0,1,1,4,0,1756998701625650644
0,2.333763838,20250904111141633,None,-25831,13.326319694519043,-1,-5,-2,-1,-3,1,3,0,1756998701633136749
0,2.333931923,20250904111141633,None,-25831,13.326319694519043,-1,-2,-2,1,-3,1,-1,-3,1756998701633257865
0,2.348806858,20250904111141648,None,-25832,7.615039825439453,-1,1,-1,1,0,-2,-1,1,1756998701648104429
0,2.349024296,20250904111141649,None,-25832,7.615039825439453,0,2,-2,-2,-1,-3,-7,-1,1756998701648246288
0,2.356152535,20250904111141656,None,-25833,11.184589385986328,1,0,0,1,-3,2,6,-1,1756998701655541658
0,2.356453657,20250904111141656,None,-25833,11.184589385986328,-2,0,1,-1,-2,1,3,-3,1756998701655665636
0,2.363773108,20250904111141663,None,-25835,9.994739532470703,2,3,0,2,2,2,-1,-5,1756998701663086652
0,2.363988638,20250904111141663,None,-25835,9.994739532470703,-1,-4,0,-1,-2,-2,-3,-1,1756998701663208723
0,2.378838778,20250904111141678,None,-25837,12.612409591674805,0,-2,-6,0,1,-1,0,-1,1756998701678158760
0,2.379053354,20250904111141679,None,-25837,12.612409591674805,3,-2,-2,-1,-3,-2,-3,1,1756998701678256273
0,2.386336565,20250904111141686,None,-25838,12.612409591674805,1,6,-1,-2,-3,0,1,0,1756998701685668468
0,2.386572361,20250904111141686,None,-25838,12.612409591674805,-2,-5,-2,-2,0,0,1,0,1756998701685812950
0,2.393645287,20250904111141693,None,-25838,5.949249744415283,-1,-5,-1,-1,-1,-3,-1,-1,1756998701693084239
0,2.393855572,20250904111141693,None,-25838,5.949249744415283,-3,-1,-2,0,0,0,0,1,1756998701693207025
0,2.408641577,20250904111141708,None,-25840,5.4733099937438965,-3,-3,-2,0,-2,-1,-2,0,1756998701708027601
0,2.408818722,20250904111141708,None,-25840,5.4733099937438965,1,2,-2,-3,0,-1,-1,1,1756998701708143472
0,2.41619134,20250904111141716,None,-25841,13.564290046691895,1,2,2,-3,-3,-2,0,2,1756998701715557813
0,2.416438103,20250904111141716,None,-25841,13.564290046691895,-1,3,1,0,-1,-3,0,-1,1756998701715690851
0,2.423620939,20250904111141723,None,-25842,13.564290046691895,0,-4,-3,4,0,-1,-3,-2,1756998701723056554
0,2.423851252,20250904111141723,None,-25842,6.6631598472595215,0,0,2,-4,0,-4,-1,-1,1756998701723170757
0,2.438345194,20250904111141738,None,-25843,11.42255973815918,2,1,1,3,3,-1,1,0,1756998701738075733
0,2.438473225,20250904111141738,None,-25843,11.42255973815918,-4,2,-1,-4,1,-1,-1,-5,1756998701738206386
0,2.445824623,20250904111141745,None,-25844,9.518799781799316,-1,0,1,1,0,0,-1,-1,1756998701745602130
0,2.445918083,20250904111141745,None,-25844,9.518799781799316,-3,-2,-2,0,1,1,-2,-4,1756998701745748996
0,2.453505039,20250904111141753,None,-25845,8.804889678955078,-2,-3,-1,-4,0,1,2,2,1756998701753168106
0,2.453628063,20250904111141753,None,-25845,8.804889678955078,3,0,0,0,-2,-3,-2,2,1756998701753433942
0,2.468368769,20250904111141768,None,-25847,12.374439239501953,-1,4,1,-1,0,-2,-3,1,1756998701768089532
0,2.468495131,20250904111141768,None,-25847,12.374439239501953,1,-3,-1,0,-5,2,2,0,1756998701768260955
0,2.475799561,20250904111141775,None,-25847,6.187219619750977,1,1,-3,-1,-2,-5,-3,-2,1756998701775566101
0,2.475917578,20250904111141775,None,-25847,6.187219619750977,-6,-6,-3,-4,3,1,0,-3,1756998701775698661
0,2.483352661,20250904111141783,None,-25849,13.80225944519043,-4,0,-3,-1,-4,-6,-5,-1,1756998701783089399
0,2.483494997,20250904111141783,None,-25849,13.80225944519043,0,0,0,-1,-1,-4,-1,0,1756998701783222675
0,2.498478413,20250904111141798,None,-25851,13.80225944519043,-2,-4,1,1,-1,2,2,-3,1756998701798193693
0,2.498625517,20250904111141798,None,-25851,13.80225944519043,-2,0,-2,0,1,2,-1,1,1756998701798351526
0,2.505790949,20250904111141805,None,-25851,13.80225944519043,-2,-1,-5,2,0,-1,-1,0,1756998701805578231
0,2.505926848,20250904111141805,None,-25851,13.80225944519043,0,-1,-3,-1,-5,-1,-3,-1,1756998701805696487
0,2.52096653,20250904111141820,None,-25853,11.660530090332031,-1,1,0,1,-5,-1,0,-3,1756998701820624828
0,2.521155358,20250904111141821,None,-25853,11.660530090332031,-1,1,0,-5,-2,-2,-4,-1,1756998701820769309
0,2.528382063,20250904111141828,None,-25854,9.04286003112793,2,-2,-2,1,2,0,2,-2,1756998701828113079
0,2.528506756,20250904111141828,None,-25854,9.04286003112793,2,0,-2,-2,-1,0,2,-2,1756998701828295707
0,2.535826922,20250904111141835,None,-25855,9.518799781799316,1,-1,-1,-2,-2,0,0,0,1756998701835567474
0,2.536154032,20250904111141836,None,-25855,9.518799781799316,-4,-6,-5,0,1,-4,0,0,1756998701835722684
0,2.550987005,20250904111141850,None,-25857,12.136469841003418,-3,-1,0,0,1,-3,-4,-1,1756998701850624561
0,2.551119328,20250904111141851,None,-25857,12.136469841003418,-1,1,-2,-1,0,0,0,-1,1756998701850771427
0,2.558343411,20250904111141858,None,-25857,7.139100074768066,-2,-5,-2,0,-2,-3,-3,-2,1756998701858095884
0,2.558543682,20250904111141858,None,-25857,7.139100074768066,0,-2,-1,1,-1,2,8,0,1756998701858314514
0,2.565873623,20250904111141865,None,-25859,14.278200149536133,0,3,-3,-1,-1,-2,-4,-1,1756998701865615367
0,2.566004515,20250904111141865,None,-25859,14.278200149536133,-1,0,-1,-1,-1,0,-7,-2,1756998701865754842
0,2.580985785,20250904111141880,None,-25861,14.040229797363281,1,2,4,-3,1,-2,2,-3,1756998701880653381
0,2.581152678,20250904111141881,None,-25861,14.040229797363281,0,2,-1,-1,0,0,3,0,1756998701880828380
0,2.588410378,20250904111141888,None,-25862,14.040229797363281,-1,0,0,-1,0,-2,-1,-1,1756998701888116121
0,2.588565827,20250904111141888,None,-25862,14.040229797363281,1,-5,1,0,1,-2,-1,-3,1756998701888281583
0,2.595888138,20250904111141895,None,-25862,6.425189971923828,0,-2,-3,0,-4,-3,-7,0,1756998701895585775
0,2.596022844,20250904111141896,None,-25862,6.425189971923828,-3,2,0,-1,0,2,9,-1,1756998701895738124
0,2.611136675,20250904111141911,None,-25864,9.04286003112793,-2,-8,-2,1,0,-3,-4,-1,1756998701910661697
0,2.611293554,20250904111141911,None,-25864,9.04286003112793,-1,-1,-3,-2,-5,-3,-6,-3,1756998701910810708
0,2.618689299,20250904111141918,None,-25865,10.232709884643555,-1,0,-3,-5,-1,0,2,-1,1756998701918202400
0,2.618818283,20250904111141918,None,-25865,10.232709884643555,4,-1,1,-1,0,-2,1,-3,1756998701918364048
0,2.626015902,20250904111141926,None,-25867,11.898499488830566,-1,0,-1,2,-2,-4,-4,0,1756998701925599813
0,2.626117945,20250904111141926,None,-25867,11.898499488830566,-2,2,-3,0,-1,-1,-4,-2,1756998701925728797
0,2.641095638,20250904111141941,None,-25867,7.139100074768066,-2,0,5,3,1,-2,-1,-2,1756998701940649986
0,2.641207695,20250904111141941,None,-25867,7.139100074768066,-2,-4,-1,0,0,-2,-2,1,1756998701940786361
0,2.648601532,20250904111141948,None,-25869,13.80225944519043,-2,0,-1,-1,-2,-2,0,-1,1756998701948130846
0,2.648776531,20250904111141948,None,-25869,13.80225944519043,-1,-2,-1,-3,0,-1,0,-1,1756998701948258161
0,2.656153202,20250904111141956,None,-25870,5.71127986907959,0,-2,-3,-4,0,-1,0,0,1756998701955634593
0,2.656300068,20250904111141956,None,-25870,5.71127986907959,-1,0,-1,2,-1,-3,0,2,1756998701955800294
0,2.671147585,20250904111141971,None,-25872,14.040229797363281,-2,3,0,1,1,-3,-1,0,1756998701970675230
0,2.671290636,20250904111141971,None,-25872,14.040229797363281,-1,-3,-1,-1,-1,2,1,0,1756998701970819950
0,2.678493977,20250904111141978,None,-25872,5.949249744415283,0,-3,-3,1,1,-3,-4,1,1756998701978115320
0,2.6785779,20250904111141978,None,-25872,5.949249744415283,2,2,-4,-2,-1,-1,-1,-1,1756998701978244066
0,2.686037541,20250904111141986,None,-25873,12.850379943847656,-1,-5,1,1,0,0,-1,-1,1756998701985620975
0,2.686144114,20250904111141986,None,-25873,12.850379943847656,-1,-3,-2,1,1,0,3,0,1756998701985746622
0,2.701038838,20250904111142001,None,-25875,10.708649635314941,0,-2,-4,0,1,0,0,0,1756998702000596046
0,2.701164484,20250904111142001,None,-25875,10.708649635314941,1,2,0,-1,1,1,-1,-1,1756998702000733613
0,2.7084198,20250904111142008,None,-25877,10.708649635314941,-1,0,-3,-1,-2,-1,0,-1,1756998702008121252
0,2.708546639,20250904111142008,None,-25877,10.708649635314941,-1,-5,1,2,-2,-2,-4,2,1756998702008266925
0,2.7160098550000003,20250904111142015,None,-25877,10.946619987487793,-5,0,0,1,0,-2,-1,-3,1756998702015588521
0,2.716111899,20250904111142016,None,-25877,10.946619987487793,-2,-1,-1,-1,1,-1,0,-2,1756998702015716791
0,2.731159687,20250904111142031,None,-25879,13.326319694519043,0,-2,1,-1,1,0,-4,-1,1756998702030684232
0,2.73133874,20250904111142031,None,-25879,13.326319694519043,-2,0,-4,-1,0,-4,-3,-1,1756998702030834913
0,2.738645315,20250904111142038,None,-25879,5.71127986907959,-2,-1,-2,1,-1,-1,4,0,1756998702038171529
0,2.738768339,20250904111142038,None,-25879,5.71127986907959,1,-3,-3,-2,-1,-1,-8,-4,1756998702038327693
0,2.745940924,20250904111142045,None,-25881,14.040229797363281,-2,1,-1,-2,-1,3,6,1,1756998702045618772
0,2.746062994,20250904111142046,None,-25881,14.040229797363281,-4,0,1,1,-1,1,-4,-2,1756998702045763731
0,2.760986328,20250904111142060,None,-25882,5.235340118408203,-3,-1,0,-2,-2,-3,-3,-4,1756998702060645341
0,2.761139393,20250904111142061,None,-25882,5.235340118408203,-1,-3,-2,-2,-1,1,0,0,1756998702060829401
0,2.768362284,20250904111142068,None,-25883,13.088349342346191,1,1,1,-2,0,0,-2,-2,1756998702068072795
0,2.768479347,20250904111142068,None,-25883,13.088349342346191,-1,-2,-1,-1,-2,-3,-2,1,1756998702068203687
0,2.7759408949999997,20250904111142075,None,-25884,7.615039825439453,-1,-3,-2,-1,0,-1,-1,0,1756998702075685977
0,2.776070595,20250904111142076,None,-25884,7.615039825439453,1,2,2,-1,0,-2,-1,0,1756998702075821399
0,2.791053772,20250904111142091,None,-25885,10.708649635314941,0,3,-1,-2,-1,-6,-4,-2,1756998702090779542
0,2.791199684,20250904111142091,None,-25885,10.708649635314941,0,-6,-2,0,-1,0,4,-1,1756998702090926170
0,2.798433542,20250904111142098,None,-25887,10.232709884643555,-8,-5,2,-3,-1,-2,-3,1,1756998702098146677
0,2.798580647,20250904111142098,None,-25887,10.232709884643555,3,2,-1,0,0,-1,3,1,1756998702098289489
0,2.80595088,20250904111142105,None,-25887,7.615039825439453,1,2,-5,-1,-3,-2,-1,-4,1756998702105650186
0,2.806087494,20250904111142106,None,-25887,7.615039825439453,-5,-6,-1,-3,-3,-1,-5,-1,1756998702105830669
0,2.821123839,20250904111142121,None,-25890,5.71127986907959,-1,4,-2,-1,-1,-2,-1,-2,1756998702120633602
0,2.821281195,20250904111142121,None,-25890,5.71127986907959,2,-1,-3,2,0,2,4,-1,1756998702120790243
0,2.828543186,20250904111142128,None,-25891,5.71127986907959,1,-3,-1,0,0,1,1,0,1756998702128126621
0,2.828660965,20250904111142128,None,-25891,5.71127986907959,0,1,1,-1,-1,-1,-3,0,1756998702128263711
0,2.836048842,20250904111142136,None,-25891,14.040229797363281,0,0,-1,-2,-2,0,-1,-2,1756998702135616064
0,2.836157084,20250904111142136,None,-25891,14.040229797363281,-3,-1,-2,-2,-3,2,0,-1,1756998702135748386
0,2.8511214259999997,20250904111142151,None,-25893,13.564290046691895,3,-1,-3,1,-1,0,1,-1,1756998702150653600
0,2.851243496,20250904111142151,None,-25893,13.564290046691895,2,-4,2,0,3,-3,2,-1,1756998702150793313
0,2.858557224,20250904111142158,None,-25894,7.615039825439453,0,-5,1,-1,-3,-1,-2,0,1756998702158127307
0,2.858672142,20250904111142158,None,-25894,7.615039825439453,1,-3,1,-1,-2,2,2,0,1756998702158255338
0,2.8662045000000003,20250904111142166,None,-25895,7.615039825439453,-2,2,1,-1,-2,-1,-2,-1,1756998702165630102
0,2.866343975,20250904111142166,None,-25895,7.615039825439453,-1,0,-1,-1,-2,-4,-7,-4,1756998702165811300
0,2.8810296060000002,20250904111142181,None,-25897,9.756770133972168,1,4,1,0,-4,1,7,0,1756998702180579185
0,2.88113308,20250904111142181,None,-25897,9.756770133972168,-4,-2,-3,0,0,0,-2,-1,1756998702180709362
0,2.8884308340000002,20250904111142188,None,-25897,8.328949928283691,-5,-3,-1,2,0,2,-3,-1,1756998702188115358
0,2.888546944,20250904111142188,None,-25897,8.328949928283691,-2,-2,-2,-2,-1,3,-1,0,1756998702188271045
0,2.895856142,20250904111142195,None,-25899,12.612409591674805,3,-3,0,-1,0,-2,-4,-1,1756998702195600032
0,2.89599061,20250904111142195,None,-25899,12.612409591674805,2,1,-1,0,0,-4,-1,0,1756998702195739984
0,2.911102772,20250904111142211,None,-25901,5.71127986907959,2,1,0,1,0,1,2,-2,1756998702210642337
0,2.911205292,20250904111142211,None,-25901,5.71127986907959,-2,-3,-2,-2,0,-4,-4,-2,1756998702210772514
0,2.918511629,20250904111142218,None,-25902,13.80225944519043,-2,-3,0,-1,0,0,1,0,1756998702218080043
0,2.9186317920000002,20250904111142218,None,-25902,13.80225944519043,2,0,0,-1,1,-2,0,-3,1756998702218198299
0,2.925946236,20250904111142225,None,-25902,5.4733099937438965,2,2,1,-1,1,-1,-10,-4,1756998702225555181
0,2.92602396,20250904111142226,None,-25902,5.4733099937438965,-1,1,-1,-2,0,4,9,1,1756998702225673913
0,2.940950155,20250904111142240,None,-25904,6.6631598472595215,0,-2,-1,-1,2,-1,1,-1,1756998702240527868
0,2.941057921,20250904111142241,None,-25904,6.6631598472595215,0,1,1,-1,-3,1,-3,-1,1756998702240641593
0,2.948517561,20250904111142248,None,-25905,6.6631598472595215,-3,-3,-1,2,0,-2,-1,-4,1756998702248085498
0,2.9486026770000002,20250904111142248,None,-25905,6.6631598472595215,-3,-4,-3,-2,1,-4,-8,1,1756998702248201370
0,2.955990315,20250904111142255,None,-25906,10.946619987487793,-1,0,-3,0,-1,0,-1,2,1756998702255577087
0,2.956089258,20250904111142256,None,-25906,10.946619987487793,3,3,0,-2,-2,-3,-1,-2,1756998702255694389
0,2.971063614,20250904111142271,None,-25907,9.04286003112793,0,7,0,0,-4,0,0,-4,1756998702270650148
0,2.9713015560000002,20250904111142271,None,-25907,9.04286003112793,-2,-11,-4,-3,0,-2,-2,-2,1756998702270876646
0,2.978548289,20250904111142278,None,-25909,12.136469841003418,-3,-6,-3,1,-2,-4,-1,2,1756998702278216123
0,2.978706837,20250904111142278,None,-25909,12.136469841003418,-2,-1,-1,-4,-2,0,-3,-3,1756998702278403759
0,2.9860146050000003,20250904111142286,None,-25909,5.949249744415283,-1,1,1,-1,-2,-2,0,-3,1756998702285635232
0,2.98613739,20250904111142286,None,-25909,5.949249744415283,-3,-2,-2,-3,0,0,1,-2,1756998702285786867
0,3.00097704,20250904111142300,None,-25911,14.040229797363281,0,1,-1,1,-3,1,-3,0,1756998702300654649
0,3.001177788,20250904111142301,None,-25911,14.040229797363281,-2,-4,-3,-3,-2,1,2,-1,1756998702300819158
0,3.008480549,20250904111142308,None,-25912,5.235340118408203,0,-1,-1,1,0,-3,-3,0,1756998702308167457
0,3.008663893,20250904111142308,None,-25912,5.235340118408203,-2,0,-1,1,-4,-1,1,1,1756998702308351755
0,3.015917301,20250904111142315,None,-25913,13.80225944519043,-2,-5,-1,-3,-1,-4,-5,-1,1756998702315632820
0,3.016084433,20250904111142316,None,-25913,13.80225944519043,-4,-2,-1,0,-3,0,3,0,1756998702315783977
0,3.031529188,20250904111142331,None,-25915,11.660530090332031,0,1,0,-3,1,1,-3,0,1756998702330701828
0,3.031716824,20250904111142331,None,-25915,11.660530090332031,3,2,0,-2,-3,-2,-2,0,1756998702330865383
0,3.03882885,20250904111142338,None,-25915,11.660530090332031,0,-2,-3,0,0,-2,2,0,1756998702338137388
0,3.039049626,20250904111142339,None,-25915,11.660530090332031,-1,3,1,0,-4,0,2,0,1756998702338260889
0,3.046302796,20250904111142346,None,-25916,9.04286003112793,0,4,-2,-4,-1,-2,-2,0,1756998702345609426
0,3.046523333,20250904111142346,None,-25916,9.04286003112793,-4,-6,-1,-2,-2,-1,-6,-2,1756998702345731019
0,3.061236859,20250904111142361,None,-25919,11.184589385986328,-1,-8,-1,1,0,-1,3,2,1756998702360572099
0,3.061438084,20250904111142361,None,-25919,11.184589385986328,-1,0,-4,-1,-3,0,0,0,1756998702360702991
0,3.068565369,20250904111142368,None,-25919,11.184589385986328,2,-1,-4,-1,-3,-3,0,-1,1756998702367992877
0,3.068723202,20250904111142368,None,-25919,11.184589385986328,2,1,-1,-4,-3,0,-2,0,1756998702368099212
0,3.076189518,20250904111142376,None,-25919,6.6631598472595215,-4,-3,-1,1,-3,1,-1,-3,1756998702375569105
0,3.076519728,20250904111142376,None,-25921,6.6631598472595215,1,2,0,-1,-2,-1,-3,-2,1756998702375676393
0,3.090793848,20250904111142390,None,-25922,5.4733099937438965,-2,-3,-1,0,1,-1,-2,2,1756998702390569925
0,3.090880394,20250904111142390,None,-25922,5.4733099937438965,0,-4,0,0,-1,2,2,-4,1756998702390685558
0,3.098260403,20250904111142398,None,-25923,13.80225944519043,1,5,1,-3,-3,-3,-2,-2,1756998702398028850
0,3.098333121,20250904111142398,None,-25923,13.80225944519043,-2,1,-1,-2,-3,0,-1,-6,1756998702398109912
0,3.105538607,20250904111142405,None,-25924,13.80225944519043,-3,-4,-1,-3,0,-2,0,1,1756998702405405998
0,3.105573416,20250904111142405,None,-25924,13.80225944519043,-2,1,-1,2,0,0,-5,-1,1756998702405494928
0,3.120728731,20250904111142420,None,-25925,11.898499488830566,3,4,-1,-1,-1,-1,2,1,1756998702420515775
0,3.120830059,20250904111142420,None,-25925,11.898499488830566,-1,1,-1,0,0,-4,-5,0,1756998702420618295
0,3.128314495,20250904111142428,None,-25926,8.566919326782227,0,-3,-1,-1,-2,0,2,-1,1756998702428045749
0,3.128406286,20250904111142428,None,-25926,8.566919326782227,-3,-4,-1,-4,-4,-5,-4,-1,1756998702428142786
0,3.135878802,20250904111142435,None,-25927,9.994739532470703,-1,-1,-2,1,0,1,4,-2,1756998702435603618
0,3.136014462,20250904111142436,None,-25927,9.994739532470703,-2,1,-2,-1,-4,-3,-5,-3,1756998702435743808
0,3.151130676,20250904111142451,None,-25929,11.184589385986328,1,0,-3,-3,-3,-1,-2,-2,1756998702450769662
0,3.151299954,20250904111142451,None,-25929,11.184589385986328,1,1,1,-1,1,0,1,1,1756998702450956583
0,3.158323527,20250904111142458,None,-25929,6.901129722595215,1,-1,0,0,-2,-1,-1,-2,1756998702458082675
0,3.158415556,20250904111142458,None,-25929,6.901129722595215,1,-3,-1,2,-1,-3,0,0,1756998702458201885
0,3.165777445,20250904111142465,None,-25931,13.088349342346191,-3,1,-1,-4,-1,-1,-1,-2,1756998702465567350
0,3.165872097,20250904111142465,None,-25931,13.088349342346191,-2,-1,-2,1,-2,-1,-5,2,1756998702465682029
0,3.180899143,20250904111142480,None,-25933,13.80225944519043,-1,-5,-1,-2,0,-1,-2,0,1756998702480637788
0,3.181043625,20250904111142481,None,-25933,13.80225944519043,2,1,-3,0,-2,-2,-1,-3,1756998702480787277
0,3.188350201,20250904111142488,None,-25934,13.80225944519043,-2,-3,0,-1,0,0,-1,-1,1756998702488106727
0,3.188416004,20250904111142488,None,-25934,13.80225944519043,-1,-6,-1,-3,3,0,0,3,1756998702488272428
0,3.195776224,20250904111142495,None,-25934,5.949249744415283,1,3,0,-1,1,1,2,1,1756998702495535373
0,3.195872069,20250904111142495,None,-25934,5.949249744415283,-4,3,1,1,-4,-1,-5,1,1756998702495650053
0,3.21097827,20250904111142510,None,-25936,8.09097957611084,3,0,-3,-3,-2,1,1,0,1756998702510667800
0,3.211121082,20250904111142511,None,-25936,8.09097957611084,0,2,2,1,-4,-3,0,-1,1756998702510832786
0,3.218283892,20250904111142518,None,-25937,9.994739532470703,-5,-6,1,0,-1,0,-1,-1,1756998702518087863
0,3.218362093,20250904111142518,None,-25937,9.994739532470703,0,-2,0,-3,-2,-2,1,-1,1756998702518207550
0,3.225675821,20250904111142525,None,-25939,9.994739532470703,0,4,1,-1,4,-1,-1,1,1756998702525470018
0,3.225754738,20250904111142525,None,-25939,9.994739532470703,-2,-3,-3,-3,1,-2,-1,-2,1756998702525563955
0,3.240756273,20250904111142540,None,-25939,7.8530097007751465,-1,0,1,-1,0,-3,-4,-3,1756998702540530204
0,3.240873099,20250904111142540,None,-25939,7.8530097007751465,-1,1,1,1,-3,0,-2,-3,1756998702540667057
0,3.24837184,20250904111142548,None,-25941,12.612409591674805,1,2,0,-3,1,-3,1,1,1756998702548123836
0,3.248495102,20250904111142548,None,-25941,12.612409591674805,1,1,-2,-2,-2,-1,-5,-3,1756998702548255205
0,3.2558155060000002,20250904111142555,None,-25942,5.4733099937438965,-2,-6,2,1,3,-4,0,0,1756998702555577039
0,3.25590682,20250904111142555,None,-25942,5.4733099937438965,-2,-4,-4,0,-1,0,-5,0,1756998702555702447
0,3.270995617,20250904111142570,None,-25943,13.80225944519043,-1,-3,1,-1,-1,0,10,1,1756998702570724964
0,3.271094322,20250904111142571,None,-25943,13.80225944519043,1,1,0,0,-1,0,1,0,1756998702570903301
0,3.278446675,20250904111142578,None,-25944,5.71127986907959,-1,0,0,-3,-2,-2,-3,-2,1756998702578212499
0,3.27858305,20250904111142578,None,-25944,5.71127986907959,0,4,2,-1,-1,-2,1,-1,1756998702578363180
0,3.285853386,20250904111142585,None,-25945,12.850379943847656,-3,0,1,-2,-1,-3,-5,-1,1756998702585660696
0,3.2859337330000002,20250904111142585,None,-25945,12.850379943847656,-2,0,1,-1,0,-1,2,-5,1756998702585770845
0,3.309525013,20250904111142609,None,-25949,10.708649635314941,-1,-1,-2,0,1,2,-4,-1,1756998702608914136
0,3.310045958,20250904111142610,None,-25949,10.232709884643555,-2,-2,-6,-3,-1,-5,-7,-2,1756998702609080076
0,3.31037283,20250904111142610,None,-25949,10.232709884643555,-1,-5,1,-3,2,0,1,-2,1756998702609648704
0,3.310474634,20250904111142610,None,-25949,10.232709884643555,-2,-2,0,0,-2,-1,5,2,1756998702609772205
0,3.315932274,20250904111142615,None,-25949,10.232709884643555,0,3,0,0,-2,-5,-2,-3,1756998702615734577
0,3.316091061,20250904111142616,None,-25949,10.232709884643555,0,2,-1,-1,-2,-3,-2,-1,1756998702615854263
0,3.33093071,20250904111142630,None,-25951,12.850379943847656,-1,1,-2,-1,-1,-1,-4,-3,1756998702630593061
0,3.3310515880000002,20250904111142631,None,-25951,12.850379943847656,2,2,0,-3,2,-1,3,-1,1756998702630718708
0,3.338419676,20250904111142638,None,-25952,5.71127986907959,0,2,0,4,-3,-1,2,-2,1756998702638182163
0,3.338521481,20250904111142638,None,-25952,5.71127986907959,-1,-8,-3,0,-1,-2,-4,1,1756998702638335466
0,3.346006155,20250904111142645,None,-25953,13.80225944519043,-1,2,-1,2,-2,0,4,-1,1756998702645722627
0,3.346108675,20250904111142646,None,-25953,13.80225944519043,2,2,-2,-1,-1,-1,-1,1,1756998702645865440
0,3.360912562,20250904111142660,None,-25954,5.4733099937438965,-2,-3,-9,0,2,0,1,-2,1756998702660629510
0,3.361036062,20250904111142661,None,-25954,5.4733099937438965,1,-2,1,0,0,-1,1,0,1756998702660778522
0,3.368465662,20250904111142668,None,-25955,13.326319694519043,-1,2,-4,2,1,1,2,0,1756998702668184280
0,3.36857009,20250904111142668,None,-25955,13.326319694519043,2,0,-3,2,-2,2,-2,1,1756998702668344259
0,3.375989437,20250904111142675,None,-25956,7.37706995010376,0,7,-2,-5,-2,-1,-2,-3,1756998702675762414
0,3.376083613,20250904111142676,None,-25956,7.37706995010376,-3,-3,0,1,3,-1,-2,-2,1756998702675905227
0,3.391010046,20250904111142691,None,-25959,10.946619987487793,-1,-3,1,1,0,-1,-4,-2,1756998702690661907
0,3.391159535,20250904111142691,None,-25959,10.946619987487793,2,-1,-3,-1,3,4,5,1,1756998702690833568
0,3.398407459,20250904111142698,None,-25959,9.756770133972168,1,3,-2,0,2,-2,-1,3,1756998702698144197
0,3.398516178,20250904111142698,None,-25959,9.756770133972168,-4,2,0,-1,-1,-3,-3,-4,1756998702698283433
0,3.405867338,20250904111142705,None,-25959,8.09097957611084,-2,3,2,-2,-2,-2,-5,-3,1756998702705611944
0,3.406013251,20250904111142705,None,-25959,8.09097957611084,0,0,0,1,-2,-2,0,0,1756998702705740451
0,3.420898438,20250904111142720,None,-25962,5.949249744415283,-4,-5,-2,2,-1,2,5,1,1756998702720597028
0,3.421056509,20250904111142721,None,-25962,5.949249744415283,-3,-1,2,-1,1,2,-3,-1,1756998702720754146
0,3.428539992,20250904111142728,None,-25963,13.80225944519043,0,-3,-1,-4,0,-1,-3,0,1756998702728172063
0,3.428624869,20250904111142728,None,-25963,13.80225944519043,-2,5,0,1,-2,-3,-2,-3,1756998702728324651
0,3.435870171,20250904111142735,None,-25963,13.80225944519043,2,1,-2,-1,3,-1,-1,2,1756998702735623836
0,3.435991526,20250904111142735,None,-25963,13.80225944519043,-5,0,-1,-3,0,-3,-2,-2,1756998702735739469
0,3.450878859,20250904111142750,None,-25965,13.564290046691895,1,-1,0,-4,-1,2,2,-1,1756998702750623941
0,3.451140404,20250904111142751,None,-25965,13.564290046691895,-1,-6,-1,3,-1,-1,1,-1,1756998702750761985
0,3.4584662919999998,20250904111142758,None,-25966,6.901129722595215,0,-4,-1,2,-2,-1,-2,1,1756998702758208513
0,3.458571911,20250904111142758,None,-25966,6.901129722595215,-2,2,-2,0,-2,-5,-5,-3,1756998702758364439
0,3.473663092,20250904111142773,None,-25967,11.42255973815918,-4,-1,0,-1,-1,1,-4,0,1756998702773164987
0,3.473999262,20250904111142773,None,-25968,11.42255973815918,0,-2,3,-3,-1,-2,0,-1,1756998702773545265
0,3.481294632,20250904111142781,None,-25968,9.518799781799316,0,-1,0,-1,-2,1,3,-1,1756998702780878067
0,3.481377363,20250904111142781,None,-25968,9.518799781799316,-2,1,-3,-5,-2,-1,-6,-1,1756998702781046390
0,3.488562823,20250904111142788,None,-25969,9.04286003112793,1,-6,-1,-1,-2,-1,2,0,1756998702788138866
0,3.488657236,20250904111142788,None,-25969,9.04286003112793,3,-1,-1,1,-1,1,4,0,1756998702788259267
0,3.503647804,20250904111142803,None,-25971,6.6631598472595215,-2,-2,-2,-1,-5,1,0,2,1756998702803169727
0,3.50378108,20250904111142803,None,-25971,6.6631598472595215,-2,-3,1,0,1,1,1,-3,1756998702803303003
0,3.511008263,20250904111142810,None,-25973,6.6631598472595215,0,-5,2,-2,1,-3,-4,-2,1756998702810593843
0,3.511123896,20250904111142811,None,-25973,6.6631598472595215,-2,-2,-3,-1,1,1,-6,0,1756998702810719251
0,3.518455744,20250904111142818,None,-25973,14.040229797363281,1,2,3,0,0,-3,-4,-4,1756998702818114995
0,3.5185697080000002,20250904111142818,None,-25973,14.040229797363281,0,-1,-3,0,1,1,9,2,1756998702818222761
0,3.533458471,20250904111142833,None,-25975,13.564290046691895,-2,-3,-1,0,1,0,-2,-2,1756998702833137035
0,3.533608914,20250904111142833,None,-25975,13.564290046691895,0,-1,1,-2,0,-2,-2,-1,1756998702833287954
0,3.540908575,20250904111142840,None,-25976,6.425189971923828,-4,-3,-1,1,-2,1,-3,-3,1756998702840655326
0,3.541050196,20250904111142841,None,-25976,6.425189971923828,1,3,0,-1,-1,1,-3,-1,1756998702840800523
0,3.548495293,20250904111142848,None,-25977,6.425189971923828,1,2,0,2,-1,-3,2,0,1756998702848153352
0,3.548674107,20250904111142848,None,-25977,6.425189971923828,-3,-7,0,-4,-1,-1,1,0,1756998702848264217
0,3.5634779930000002,20250904111142863,None,-25978,9.04286003112793,-2,-6,0,-1,2,1,-1,-2,1756998702863176822
0,3.563610077,20250904111142863,None,-25978,9.04286003112793,-3,0,-2,0,-2,-2,0,-3,1756998702863342523
0,3.571157694,20250904111142871,None,-25979,9.280829429626465,2,4,0,-2,-1,-2,-2,-2,1756998702870880365
0,3.5713090899999997,20250904111142871,None,-25979,9.280829429626465,0,-2,-2,-3,1,-2,-2,0,1756998702871065378
0,3.578360796,20250904111142878,None,-25981,11.660530090332031,1,0,1,-4,-1,-1,0,1,1756998702878144502
0,3.578464747,20250904111142878,None,-25981,11.660530090332031,3,5,-1,0,-2,-2,-4,-4,1756998702878258228
0,3.5936188700000002,20250904111142893,None,-25981,6.425189971923828,-1,-8,-4,0,1,0,4,-1,1756998702893128633
0,3.593774319,20250904111142893,None,-25981,6.425189971923828,-1,-5,-5,-1,-2,1,2,-2,1756998702893265724
0,3.601187468,20250904111142901,None,-25983,13.80225944519043,1,-2,0,-1,-1,0,-1,0,1756998702900677919
0,3.601383925,20250904111142901,None,-25983,13.80225944519043,-1,0,-3,2,-1,1,0,0,1756998702900838851
0,3.608388663,20250904111142908,None,-25984,5.4733099937438965,0,1,1,-4,-1,1,-4,1,1756998702908129692
0,3.60849905,20250904111142908,None,-25984,5.4733099937438965,1,-1,0,-1,1,-3,0,1,1756998702908266067
0,3.62343216,20250904111142923,None,-25986,5.949249744415283,-3,2,2,0,-1,-5,-3,-1,1756998702923137426
0,3.623546839,20250904111142923,None,-25986,5.949249744415283,0,-1,-1,0,-1,1,1,3,1756998702923261642
0,3.630946636,20250904111142930,None,-25986,5.949249744415283,4,0,2,-2,-4,0,-3,-1,1756998702930694818
0,3.631063461,20250904111142931,None,-25986,5.949249744415283,-3,2,0,1,-1,1,0,-4,1756998702930848598
0,3.638393402,20250904111142938,None,-25987,11.898499488830566,0,-2,-1,0,-1,-3,-5,-1,1756998702938129186
0,3.63850379,20250904111142938,None,-25987,11.898499488830566,1,-1,0,-2,2,2,2,4,1756998702938286781
0,3.653465748,20250904111142953,None,-25989,9.518799781799316,-3,6,2,-3,-1,-1,-2,2,1756998702953173398
0,3.653597117,20250904111142953,None,-25989,9.518799781799316,-3,-3,-1,2,0,-3,2,-1,1756998702953329086
0,3.660856724,20250904111142960,None,-25991,11.184589385986328,-1,-5,1,-1,-4,0,0,-1,1756998702960632085
0,3.660974264,20250904111142960,None,-25991,11.184589385986328,-1,5,0,-2,0,-2,-3,0,1756998702960749149
0,3.668361426,20250904111142968,None,-25991,11.184589385986328,-1,-2,-3,0,-1,0,-4,-1,1756998702968099117
0,3.668478489,20250904111142968,None,-25991,11.184589385986328,-1,-2,1,0,-2,-1,-4,-3,1756998702968215227
0,3.691602945,20250904111142991,None,-25994,5.71127986907959,-2,1,1,-1,-1,-1,-3,-2,1756998702991314649
0,3.691815853,20250904111142991,None,-25994,5.71127986907959,-4,-1,-1,-2,3,1,2,-3,1756998702991436719
0,3.692562342,20250904111142992,None,-25994,5.71127986907959,1,-2,2,2,-1,-2,4,-2,1756998702992335796
0,3.692703009,20250904111142992,None,-25994,5.71127986907959,0,-1,-2,-3,-3,-4,1,1,1756998702992531299
0,3.698362112,20250904111142998,None,-25995,14.040229797363281,1,-3,-5,0,-3,0,-3,-4,1756998702998106956
0,3.698494673,20250904111142998,None,-25995,14.040229797363281,-3,-1,1,-1,-2,1,-3,-1,1756998702998218536
0,3.713549853,20250904111143013,None,-25997,6.187219619750977,1,-2,-1,1,-1,2,-2,0,1756998703013260364
0,3.7137115,20250904111143013,None,-25997,6.187219619750977,-2,-1,0,-1,1,-3,-4,-2,1756998703013415336
0,3.721417427,20250904111143021,None,-25998,12.612409591674805,1,2,-2,1,1,-2,-3,0,1756998703020681142
0,3.721625328,20250904111143021,None,-25998,12.612409591674805,0,-4,-2,-5,0,-2,0,-1,1756998703020814895
0,3.728661061,20250904111143028,None,-25998,8.566919326782227,-1,-3,-1,0,1,-2,-2,0,1756998703028071165
0,3.728836537,20250904111143028,None,-25998,8.566919326782227,-1,4,-1,-1,-2,0,1,0,1756998703028172731
0,3.743501425,20250904111143043,None,-26001,10.232709884643555,-2,1,0,1,-1,-2,-2,1,1756998703043077230
0,3.743704558,20250904111143043,None,-26001,10.946619987487793,-1,-3,-2,-2,-1,-6,-5,-6,1756998703043189764
0,3.750983238,20250904111143050,None,-26001,10.946619987487793,-3,-5,0,-1,0,2,3,1,1756998703050649642
0,3.7511060240000003,20250904111143051,None,-26001,10.946619987487793,2,-1,-1,0,0,0,-2,0,1756998703050830125
0,3.758365154,20250904111143058,None,-26003,7.139100074768066,-2,-1,0,2,-1,0,0,-2,1756998703058114290
0,3.758539438,20250904111143058,None,-26003,7.139100074768066,0,0,-2,0,-1,0,-1,-3,1756998703058251619
0,3.77350092,20250904111143073,None,-26004,5.71127986907959,2,4,2,1,0,-2,0,3,1756998703073174476
0,3.7737040520000003,20250904111143073,None,-26004,5.71127986907959,-4,-1,1,-1,2,-5,-8,-2,1756998703073334693
0,3.780966044,20250904111143080,None,-26005,14.278200149536133,-1,1,0,-3,-2,2,6,1,1756998703080711841
0,3.781131268,20250904111143081,None,-26005,14.278200149536133,2,2,-2,-1,0,1,1,-2,1756998703080851554
0,3.7883801459999997,20250904111143088,None,-26006,14.278200149536133,-4,1,0,2,-4,2,0,-2,1756998703088116168
0,3.788478851,20250904111143088,None,-26006,14.278200149536133,0,-1,0,-5,-2,-1,-1,0,1756998703088240861
0,3.803541184,20250904111143103,None,-26007,13.564290046691895,4,1,0,1,-1,0,2,0,1756998703103157997
0,3.803737164,20250904111143103,None,-26007,13.564290046691895,-3,-2,-4,-1,-1,0,3,2,1756998703103254556
0,3.810886622,20250904111143110,None,-26008,7.37706995010376,-3,-8,-3,2,1,1,-2,1,1756998703110621690
0,3.811031342,20250904111143111,None,-26008,7.37706995010376,-1,2,0,1,-3,1,-1,-3,1756998703110745668
0,3.818460941,20250904111143118,None,-26009,10.708649635314941,0,3,-3,0,-2,-2,-1,1,1756998703118143081
0,3.818608523,20250904111143118,None,-26009,10.708649635314941,-1,3,-2,1,3,-2,2,0,1756998703118258714
0,3.83343339,20250904111143133,None,-26011,10.470680236816406,-2,-1,-2,-3,-1,-1,-3,-2,1756998703133162260
0,3.8335700040000003,20250904111143133,None,-26011,10.470680236816406,3,-3,1,-2,0,0,2,0,1756998703133262634
0,3.840986252,20250904111143140,None,-26011,8.09097957611084,-2,-3,0,2,-2,0,-2,1,1756998703140721321
0,3.8411247729999998,20250904111143141,None,-26011,8.09097957611084,-1,-2,-1,-2,0,0,-4,-2,1756998703140856504
0,3.848403216,20250904111143148,None,-26013,12.850379943847656,-4,1,-1,1,0,-1,0,1,1756998703148143291
0,3.848594904,20250904111143148,None,-26013,12.850379943847656,2,3,-1,1,0,-4,-2,-2,1756998703148257017
0,3.86352849,20250904111143163,None,-26015,14.040229797363281,0,-3,0,-1,0,2,-1,1,1756998703163186073
0,3.863694906,20250904111143163,None,-26015,14.040229797363281,-1,2,-2,-2,-1,0,1,1,1756998703163350582
0,3.8708577159999997,20250904111143170,None,-26016,14.040229797363281,0,-5,-2,-1,-1,2,0,-1,1756998703170609474
0,3.870983601,20250904111143170,None,-26016,14.040229797363281,-2,3,3,-3,-1,-4,-10,-1,1756998703170732736
0,3.878393412,20250904111143178,None,-26016,5.71127986907959,-1,-6,-1,-3,-3,-1,8,-3,1756998703178148746
0,3.878500462,20250904111143178,None,-26016,5.71127986907959,1,4,0,-4,-1,-2,1,-4,1756998703178264617
0,3.89349103,20250904111143193,None,-26018,7.37706995010376,1,-3,-3,-1,-1,-2,2,-1,1756998703193177938
0,3.8936359879999998,20250904111143193,None,-26018,7.37706995010376,-4,-4,0,-1,-3,-4,-7,-2,1756998703193328619
0,3.9010598659999998,20250904111143201,None,-26019,11.184589385986328,-2,0,1,-2,0,0,-3,0,1756998703200774908
0,3.901186943,20250904111143201,None,-26019,11.184589385986328,0,2,0,-2,-1,1,-1,0,1756998703200973033
0,3.908470869,20250904111143208,None,-26020,9.04286003112793,-1,-5,-2,-2,-2,-2,-2,-3,1756998703208185911
0,3.908633232,20250904111143208,None,-26020,9.04286003112793,-2,-4,-2,-1,-3,-3,-3,-1,1756998703208419084
0,3.924001217,20250904111143224,None,-26021,8.09097957611084,2,0,-3,-2,0,-1,-3,0,1756998703223689556
0,3.924174547,20250904111143224,None,-26021,8.09097957611084,-5,-5,0,-2,0,-2,1,-1,1756998703223856925
0,3.930892468,20250904111143230,None,-26023,12.612409591674805,-3,0,-1,1,-6,-4,-3,-3,1756998703230660915
0,3.931007862,20250904111143230,None,-26023,12.612409591674805,1,3,1,-2,0,2,2,0,1756998703230798006
0,3.938385964,20250904111143238,None,-26023,5.949249744415283,2,-1,-2,-1,0,2,3,0,1756998703238123893
0,3.938493967,20250904111143238,None,-26023,5.949249744415283,-2,1,3,-3,-3,-2,-4,-1,1756998703238280773
0,3.9534134869999997,20250904111143253,None,-26026,13.80225944519043,-2,-1,-2,-1,1,-3,-4,-1,1756998703253157377
0,3.953544378,20250904111143253,None,-26026,13.80225944519043,0,-2,0,-1,-1,-3,0,-1,1756998703253281354
0,3.96089983,20250904111143260,None,-26026,5.71127986907959,2,0,-1,-1,2,-2,-2,-2,1756998703260663270
0,3.961024761,20250904111143261,None,-26026,5.71127986907959,-2,2,0,-1,-1,-2,-3,-1,1756998703260789155
0,3.9685044290000002,20250904111143268,None,-26027,13.564290046691895,-2,0,-2,-2,-1,-2,-6,0,1756998703268212556
0,3.968636751,20250904111143268,None,-26027,13.564290046691895,-2,-7,-1,-2,1,2,3,1,1756998703268375158
0,3.98352623,20250904111143283,None,-26029,11.42255973815918,1,-1,0,1,1,-3,1,-4,1756998703283205747
0,3.983705282,20250904111143283,None,-26029,11.42255973815918,1,0,1,-1,0,4,0,-1,1756998703283381700
0,3.9915623670000002,20250904111143291,None,-26030,8.804889678955078,0,-1,0,-2,-2,-4,-2,-1,1756998703291182756
0,3.991676331,20250904111143291,None,-26030,8.804889678955078,0,1,-4,2,-2,-2,1,-1,1756998703291477441
0,3.998416186,20250904111143298,None,-26030,8.804889678955078,0,-2,-3,-3,-1,1,2,-2,1756998703298118829
0,3.998599291,20250904111143298,None,-26030,8.804889678955078,-2,-1,0,0,0,1,1,-1,1756998703298249959
0,4.0134902,20250904111143313,None,-26033,12.612409591674805,1,-4,1,3,-1,1,-2,-3,1756998703313188791
0,4.013660193,20250904111143313,None,-26033,12.612409591674805,-2,1,0,1,-1,0,1,-1,1756998703313339233
0,4.020910025,20250904111143320,None,-26033,6.425189971923828,2,0,1,-2,0,-1,-4,-3,1756998703320644855
0,4.021045685,20250904111143321,None,-26033,6.425189971923828,-1,0,2,-2,-2,-1,-3,-2,1756998703320749759
0,4.028395415,20250904111143328,None,-26035,6.425189971923828,-3,-2,-1,-1,1,1,8,3,1756998703328148841
0,4.028521538,20250904111143328,None,-26035,6.425189971923828,-3,0,0,2,-1,2,2,2,1756998703328258991
0,4.043562651,20250904111143343,None,-26036,5.71127986907959,-1,3,-1,1,-2,0,0,1,1756998703343198776
0,4.043757677,20250904111143343,None,-26036,5.71127986907959,-2,0,1,-4,2,1,-4,1,1756998703343392610
0,4.050899029,20250904111143350,None,-26037,13.80225944519043,-5,-4,-2,-2,-2,-1,-1,-1,1756998703350607156
0,4.051046133,20250904111143351,None,-26037,13.80225944519043,-2,-4,-1,-1,0,-1,0,-2,1756998703350736379
0,4.05842042,20250904111143358,None,-26038,6.6631598472595215,0,1,3,0,0,1,1,1,1756998703358114719
0,4.0585742,20250904111143358,None,-26038,6.6631598472595215,4,7,2,1,-1,0,0,0,1756998703358249664
0,4.073540688,20250904111143373,None,-26039,11.898499488830566,0,4,3,-4,-1,-1,0,-2,1756998703373199939
0,4.073786497,20250904111143373,None,-26040,11.898499488830566,-4,-4,-3,0,-3,-3,-4,-2,1756998703373389720
0,4.089206219,20250904111143389,None,-26041,9.280829429626465,-3,-3,0,0,0,-2,-2,-3,1756998703388860464
0,4.0893571380000004,20250904111143389,None,-26041,9.280829429626465,1,-3,0,-1,0,0,4,1,1756998703389017105
0,4.089766264,20250904111143389,None,-26041,9.280829429626465,2,2,0,-1,0,1,1,0,1756998703389592885
0,4.089849711,20250904111143389,None,-26041,9.280829429626465,0,-1,0,1,0,-2,-3,-1,1756998703389704227
0,4.103437901,20250904111143403,None,-26043,6.6631598472595215,-2,-2,-1,-2,-2,-1,-2,1,1756998703403143167
0,4.103569269,20250904111143403,None,-26043,6.6631598472595215,0,0,-3,0,0,0,-2,-2,1756998703403288125
0,4.110816002,20250904111143410,None,-26045,6.6631598472595215,1,-1,-1,0,0,-2,4,-1,1756998703410602331
0,4.110924721,20250904111143410,None,-26045,6.6631598472595215,-3,-1,0,1,-2,1,-3,0,1756998703410714149
0,4.118514061,20250904111143418,None,-26045,14.040229797363281,-2,-2,-4,-4,-1,-2,2,1,1756998703418187379
0,4.118643999,20250904111143418,None,-26045,14.040229797363281,1,-4,0,3,0,-1,2,3,1756998703418331384
0,4.133475065,20250904111143433,None,-26047,13.80225944519043,-2,4,-5,-2,-1,-3,0,0,1756998703433133840
0,4.1336898810000005,20250904111143433,None,-26047,13.80225944519043,-1,-1,0,1,-5,-3,-2,1,1756998703433474302
0,4.140909434,20250904111143440,None,-26048,5.949249744415283,-5,-4,0,0,-1,-1,-2,-2,1756998703440610647
0,4.141025305,20250904111143441,None,-26048,5.949249744415283,-4,-4,-1,1,2,1,-3,-1,1756998703440759658
0,4.148370505,20250904111143448,None,-26049,5.949249744415283,1,0,3,-2,1,-1,-2,-1,1756998703448135614
0,4.14846611,20250904111143448,None,-26049,5.949249744415283,1,0,-1,-1,-1,4,8,1,1756998703448258161
0,4.163514614,20250904111143463,None,-26050,8.09097957611084,0,-2,-3,-3,-1,-3,0,0,1756998703463183879
0,4.163637161,20250904111143463,None,-26050,8.09097957611084,0,3,2,-3,-6,-1,-2,0,1756998703463347196
0,4.170881033,20250904111143470,None,-26051,9.756770133972168,-1,1,-2,-4,-2,-5,-3,-2,1756998703470634698
0,4.17098093,20250904111143470,None,-26051,9.756770133972168,-2,-8,0,-2,1,-2,-3,0,1756998703470763921
0,4.178476811,20250904111143478,None,-26053,11.660530090332031,0,0,-1,3,1,-1,-4,-1,1756998703478220701
0,4.178575277,20250904111143478,None,-26053,11.660530090332031,-1,1,-3,-1,1,0,1,0,1756998703478378295
0,4.193434477,20250904111143493,None,-26055,7.37706995010376,-1,-2,0,1,-2,-1,-4,-1,1756998703493166685
0,4.193570614,20250904111143493,None,-26055,7.37706995010376,1,1,-1,2,3,-1,4,1,1756998703493360280
0,4.201000691,20250904111143500,None,-26055,13.564290046691895,1,3,1,0,1,0,2,-1,1756998703500672101
0,4.20112133,20250904111143501,None,-26055,13.564290046691895,-1,-8,-3,-1,1,0,-2,-4,1756998703500812530
0,4.208571673,20250904111143508,None,-26056,5.4733099937438965,-1,2,0,0,1,-2,1,-2,1756998703508276224
0,4.208690167,20250904111143508,None,-26056,5.4733099937438965,-5,-2,0,1,-4,-1,-5,-4,1756998703508479118
0,4.223596335,20250904111143523,None,-26058,5.4733099937438965,-1,-1,-1,-1,-1,-2,1,0,1756998703523289442
0,4.223749161,20250904111143523,None,-26058,5.4733099937438965,0,2,1,-1,-2,-1,1,0,1756998703523453235
0,4.230868817,20250904111143530,None,-26059,5.4733099937438965,-3,-6,-2,2,-2,0,1,-1,1756998703530636310
0,4.230984688,20250904111143530,None,-26059,5.4733099937438965,-2,0,0,-1,1,-1,-2,-3,1756998703530768871
0,4.238515377,20250904111143538,None,-26059,12.850379943847656,-3,0,0,-1,-2,-1,-5,-3,1756998703538205385
0,4.238637686,20250904111143538,None,-26059,12.850379943847656,1,-2,-1,-2,1,0,-3,0,1756998703538367986
0,4.253462076,20250904111143553,None,-26061,10.470680236816406,-1,0,-3,-1,-1,2,2,-1,1756998703553165674
0,4.253660441,20250904111143553,None,-26061,10.470680236816406,1,-2,0,1,2,-2,-6,-3,1756998703553425073
0,4.26103425,20250904111143561,None,-26063,10.708649635314941,3,1,-1,-3,-3,0,4,-1,1756998703560786247
0,4.261141539,20250904111143561,None,-26063,10.708649635314941,-1,2,-2,1,-2,0,1,1,1756998703560967683
0,4.268453837,20250904111143568,None,-26063,7.139100074768066,0,0,-1,-2,-2,0,-4,-2,1756998703568184375
0,4.268556357,20250904111143568,None,-26063,7.139100074768066,-1,-3,-3,-3,-4,-1,-1,1,1756998703568354368
0,4.28356576,20250904111143583,None,-26065,12.612409591674805,-3,1,0,-2,-2,-1,-2,2,1756998703583306312
0,4.283673048,20250904111143583,None,-26065,12.612409591674805,-2,-4,-4,-3,0,0,2,2,1756998703583448410
0,4.290923119,20250904111143590,None,-26066,5.71127986907959,3,5,0,0,-2,2,-1,0,1756998703590677738
0,4.291066408,20250904111143591,None,-26066,5.71127986907959,-2,-7,0,0,-3,-3,-4,-2,1756998703590815782
0,4.298488617,20250904111143598,None,-26067,14.040229797363281,-2,-1,-4,0,0,-3,-2,-4,1756998703598169326
0,4.298617363,20250904111143598,None,-26067,14.040229797363281,-1,0,1,0,1,0,-1,-3,1756998703598258733
0,4.313454151,20250904111143613,None,-26069,5.71127986907959,1,3,1,0,-1,-2,-5,-1,1756998703613192796
0,4.313596964,20250904111143613,None,-26069,5.71127986907959,-1,1,-4,1,1,1,-2,-2,1756998703613359451
0,4.320807934,20250904111143620,None,-26069,13.326319694519043,3,4,2,0,-4,-2,0,1,1756998703620615482
0,4.320897103,20250904111143620,None,-26069,13.326319694519043,-1,-1,-2,-2,0,-2,4,1,1756998703620737791
0,4.328347445,20250904111143628,None,-26070,7.615039825439453,1,3,-3,-1,-2,-3,-1,0,1756998703628129959
0,4.328439474,20250904111143628,None,-26070,7.615039825439453,-3,-2,-1,1,0,-1,-4,-1,1756998703628261566
0,4.343328476,20250904111143643,None,-26073,10.232709884643555,-4,-5,-4,-2,-1,-2,-2,-2,1756998703643064498
0,4.34340477,20250904111143643,None,-26073,10.232709884643555,-1,0,-3,2,-2,0,-3,-4,1756998703643201112
0,4.350908041,20250904111143650,None,-26073,8.328949928283691,0,1,-1,-2,-1,3,4,0,1756998703650672912
0,4.351079464,20250904111143651,None,-26073,8.328949928283691,0,1,-2,0,1,-1,-2,-4,1756998703650814533
0,4.358409882,20250904111143658,None,-26073,8.328949928283691,2,-1,2,2,-5,-2,2,-1,1756998703658153772
0,4.358577013,20250904111143658,None,-26073,8.328949928283691,1,-3,-2,0,1,-3,-5,-4,1756998703658267021
0,4.373354197,20250904111143673,None,-26076,5.71127986907959,-1,3,-1,-4,-3,-1,-1,0,1756998703673089504
0,4.373462916,20250904111143673,None,-26076,5.71127986907959,-1,-8,1,-4,-1,1,0,-1,1756998703673222064
0,4.380873442,20250904111143680,None,-26077,14.040229797363281,1,4,-1,-2,1,-1,-3,0,1756998703680646896
0,4.38099742,20250904111143680,None,-26077,14.040229797363281,-2,-2,3,-2,-1,-2,0,0,1756998703680773258
0,4.388635636,20250904111143688,None,-26078,5.71127986907959,-3,-5,-2,-2,-4,0,-2,-1,1756998703688295125
0,4.388808966,20250904111143688,None,-26078,5.71127986907959,-2,-1,0,-2,-2,-1,-1,1,1756998703688494682
0,4.4035599229999995,20250904111143703,None,-26079,13.564290046691895,0,3,-2,-1,2,-1,-2,1,1756998703703190326
0,4.403702974,20250904111143703,None,-26079,13.564290046691895,-1,-1,-1,2,0,-2,2,0,1756998703703390836
0,4.410863877,20250904111143710,None,-26080,7.37706995010376,-2,-1,-1,1,1,-3,-2,2,1756998703710618257
0,4.411005736,20250904111143710,None,-26080,7.37706995010376,-3,-1,1,-1,-2,2,5,1,1756998703710749626
0,4.425770283,20250904111143725,None,-26083,9.756770133972168,1,1,1,-2,-2,-2,-2,0,1756998703725546598
0,4.425861359,20250904111143725,None,-26083,9.756770133972168,-2,-4,1,0,-2,1,-2,-2,1756998703725660085
0,4.4333179,20250904111143733,None,-26083,9.756770133972168,0,0,-3,-1,2,-2,-7,-5,1756998703733085393
0,4.433405638,20250904111143733,None,-26083,9.756770133972168,0,3,-2,-5,-1,3,7,2,1756998703733206510
0,4.441142082,20250904111143741,None,-26083,8.328949928283691,-3,0,0,2,1,3,1,0,1756998703740725755
0,4.441329003,20250904111143741,None,-26083,8.328949928283691,-1,0,-4,0,-2,-3,0,0,1756998703740905761
0,4.456086159,20250904111143756,None,-26085,5.949249744415283,1,3,-1,0,-1,-1,-1,3,1756998703755709171
0,4.4562807079999995,20250904111143756,None,-26085,5.949249744415283,-3,-3,0,-3,-2,-5,-4,-3,1756998703755897760
0,4.463501215,20250904111143763,None,-26087,13.80225944519043,0,-5,-5,-1,-2,-1,2,0,1756998703763158321
0,4.463615894,20250904111143763,None,-26087,13.80225944519043,0,3,-1,2,0,0,2,-2,1756998703763264656
0,4.470944882,20250904111143770,None,-26087,13.80225944519043,-3,-1,-3,-4,-4,1,-3,-3,1756998703770674705
0,4.471075297,20250904111143771,None,-26087,13.80225944519043,3,-1,-3,-1,0,0,3,0,1756998703770789146
0,4.486078978,20250904111143786,None,-26089,13.564290046691895,2,1,0,-3,-3,-1,-2,0,1756998703785708189
0,4.486361981,20250904111143786,None,-26089,13.564290046691895,-1,-2,0,-5,2,-2,3,0,1756998703785865068
0,4.49347949,20250904111143793,None,-26090,6.6631598472595215,-1,-2,0,-1,-2,2,-2,2,1756998703793201923
0,4.493695021,20250904111143793,None,-26090,6.6631598472595215,-2,-4,-4,-2,-4,0,1,-2,1756998703793353319
0,4.500941754,20250904111143800,None,-26091,11.42255973815918,-2,1,0,-2,0,2,-3,-2,1756998703800675630
0,4.501072645,20250904111143801,None,-26091,11.42255973815918,2,1,0,-2,0,-3,-1,-4,1756998703800820827
0,4.515846729,20250904111143815,None,-26092,9.518799781799316,4,2,0,2,-5,-4,0,-1,1756998703815613508
0,4.515966654,20250904111143815,None,-26092,9.518799781799316,-3,-1,-4,-3,-1,-3,-1,-1,1756998703815737485
0,4.523411274,20250904111143823,None,-26093,9.04286003112793,-2,1,0,-2,-2,0,3,1,1756998703823117494
0,4.523542404,20250904111143823,None,-26093,9.04286003112793,1,1,0,1,0,-1,-2,-2,1756998703823253393
0,4.5309937,20250904111143830,None,-26095,12.374439239501953,1,2,0,-2,0,1,-4,0,1756998703830633401
0,4.531170368,20250904111143831,None,-26095,12.374439239501953,3,5,0,-1,1,0,-4,1,1756998703830901622
0,4.546154738,20250904111143846,None,-26097,14.040229797363281,-2,-5,-2,-1,-1,0,1,-1,1756998703845768451
0,4.546344996,20250904111143846,None,-26097,14.040229797363281,-4,-4,-1,-2,-2,-4,-2,-2,1756998703845973491
0,4.553606033,20250904111143853,None,-26098,14.040229797363281,-1,-2,-3,0,-3,0,8,2,1756998703853287458
0,4.553775072,20250904111143853,None,-26098,14.040229797363281,-2,-3,1,-4,0,-1,0,0,1756998703853472232
0,4.560966969,20250904111143860,None,-26098,5.71127986907959,-3,0,-1,0,0,-1,-2,-5,1756998703860683917
0,4.561120272,20250904111143861,None,-26098,5.71127986907959,-3,2,0,-3,-1,-4,-3,-2,1756998703860831737
0,4.575965643,20250904111143875,None,-26100,6.6631598472595215,-2,-1,-3,2,-2,0,-5,0,1756998703875642538
0,4.576091767,20250904111143876,None,-26100,6.6631598472595215,4,-3,1,-1,0,0,2,1,1756998703875779867
0,4.583569527,20250904111143883,None,-26101,11.660530090332031,-1,-3,0,-2,0,-4,-5,-1,1756998703883283853
0,4.583691597,20250904111143883,None,-26101,11.660530090332031,0,5,2,-2,1,0,2,1,1756998703883411884
0,4.590928793,20250904111143890,None,-26102,11.660530090332031,-3,-6,0,2,-1,1,0,-3,1756998703890701532
0,4.5910463329999995,20250904111143891,None,-26102,11.660530090332031,-1,-3,-1,-2,-1,-1,-3,0,1756998703890846490
0,4.606019497,20250904111143906,None,-26103,9.994739532470703,-1,1,-2,1,0,1,-3,-1,1756998703905704498
0,4.606148243,20250904111143906,None,-26103,9.994739532470703,-3,1,0,1,-1,-2,1,0,1756998703905857801
0,4.613493681,20250904111143913,None,-26105,12.136469841003418,1,-1,0,0,0,-3,-4,-2,1756998703913186073
0,4.613625288,20250904111143913,None,-26105,12.136469841003418,-1,3,-1,1,0,0,-3,-2,1756998703913339614
0,4.620959044,20250904111143920,None,-26105,6.6631598472595215,-5,2,1,-7,-3,-4,-4,-3,1756998703920705556
0,4.621109963,20250904111143921,None,-26105,6.6631598472595215,-4,-6,0,1,-2,-2,2,2,1756998703920834302
0,4.635960341,20250904111143935,None,-26108,13.80225944519043,-3,-1,-1,3,2,0,1,2,1756998703935663700
0,4.636100292,20250904111143936,None,-26108,13.80225944519043,1,1,-2,1,0,0,-1,-3,1756998703935809373
0,4.643371344,20250904111143943,None,-26108,5.4733099937438965,0,0,-1,-2,-1,0,-4,-2,1756998703943106412
0,4.643496275,20250904111143943,None,-26108,5.4733099937438965,2,1,-1,-3,-2,-2,-6,-2,1756998703943256855
0,4.650942087,20250904111143950,None,-26109,14.040229797363281,-1,3,1,-2,1,1,6,3,1756998703950706720
0,4.651063442,20250904111143951,None,-26109,14.040229797363281,-4,-5,-1,-4,-2,0,-2,-1,1756998703950842618
0,4.6659052370000005,20250904111143965,None,-26111,11.898499488830566,-3,1,-1,-3,-1,-1,-4,-4,1756998703965642452
0,4.666020155,20250904111143966,None,-26111,11.898499488830566,-2,0,-1,-2,-2,0,-2,0,1756998703965766906
0,4.6735205650000005,20250904111143973,None,-26112,8.328949928283691,-1,-1,0,-3,-5,0,-1,-2,1756998703973188400
0,4.673652411,20250904111143973,None,-26112,8.328949928283691,0,-1,0,-2,-1,0,-2,-2,1756998703973367691
0,4.680968046,20250904111143980,None,-26112,8.328949928283691,0,0,1,-1,-1,-1,-1,0,1756998703980746507
0,4.681082964,20250904111143981,None,-26112,8.328949928283691,-5,1,-3,-4,4,-3,-1,-1,1756998703980878114
0,4.695981026,20250904111143995,None,-26115,11.184589385986328,-2,-6,-1,-4,-1,0,1,-2,1756998703995655536
0,4.696133137,20250904111143996,None,-26115,11.184589385986328,1,0,-1,0,1,-1,-2,-1,1756998703995820522
0,4.703377485,20250904111144003,None,-26115,6.901129722595215,1,5,0,1,1,-1,-2,-1,1756998704003123760
0,4.703486681,20250904111144003,None,-26115,6.901129722595215,-7,-8,-2,-2,-3,-2,-2,-1,1756998704003265142
0,4.710787058,20250904111144010,None,-26117,13.564290046691895,-3,-2,0,-3,2,-2,-1,-2,1756998704010569810
0,4.710902453,20250904111144010,None,-26117,13.564290046691895,-1,1,-3,-2,3,0,-2,-1,1756998704010686635
0,4.725951433,20250904111144025,None,-26118,5.71127986907959,2,0,-1,-1,-2,0,-1,-1,1756998704025632858
0,4.726075411,20250904111144026,None,-26118,5.71127986907959,0,-1,1,-1,-5,-1,-1,-5,1756998704025786399
0,4.733580589,20250904111144033,None,-26119,13.80225944519043,-4,0,-1,0,-2,1,-2,-3,1756998704033297061
0,4.733715773,20250904111144033,None,-26119,13.80225944519043,-2,-1,-3,0,-1,-4,-2,1,1756998704033454656
0,4.740884543,20250904111144040,None,-26120,5.949249744415283,0,0,2,-1,0,-2,0,0,1756998704040644168
0,4.741022587,20250904111144041,None,-26120,5.949249744415283,1,1,0,-1,-2,-1,4,1,1756998704040786504
0,4.755828142,20250904111144055,None,-26122,12.612409591674805,4,1,1,-1,-3,-4,-5,-1,1756998704055593967
0,4.755941868,20250904111144055,None,-26122,12.612409591674805,-1,-4,-2,2,0,3,1,2,1756998704055717468
0,4.763415814,20250904111144063,None,-26122,8.328949928283691,-1,-2,-1,-4,0,-3,1,0,1756998704063132047
0,4.763537646,20250904111144063,None,-26122,8.328949928283691,0,1,0,2,3,-2,-4,0,1756998704063256978
0,4.771065474,20250904111144071,None,-26123,9.994739532470703,-4,-1,-2,-2,-3,-4,-3,-5,1756998704070766448
0,4.771239758,20250904111144071,None,-26123,9.994739532470703,0,-1,0,1,-1,2,2,0,1756998704070935726
0,4.786042452,20250904111144086,None,-26125,7.8530097007751465,-2,8,3,-1,-4,0,-2,-2,1756998704085721492
0,4.786206246,20250904111144086,None,-26125,7.8530097007751465,-5,-3,-1,0,1,0,0,2,1756998704085877656
0,4.79347086,20250904111144093,None,-26127,7.8530097007751465,0,-7,-1,-1,-1,0,-9,1,1756998704093196392
0,4.7935912609999995,20250904111144093,None,-26127,7.8530097007751465,-1,-3,-2,1,-1,4,10,1,1756998704093351840
0,4.801475763,20250904111144101,None,-26127,13.326319694519043,2,1,0,-2,-3,-1,-5,-1,1756998704100698947
0,4.8018047809999995,20250904111144101,None,-26127,13.326319694519043,-2,-1,1,1,1,-1,-5,2,1756998704100832700
0,4.816479445,20250904111144116,None,-26129,13.80225944519043,1,2,-2,-1,-2,0,2,1,1756998704115648508
0,4.8167138099999995,20250904111144116,None,-26129,13.80225944519043,0,-2,0,-5,0,0,-2,1,1756998704115773916
0,4.823581219,20250904111144123,None,-26130,5.71127986907959,-3,1,-1,0,1,1,-3,0,1756998704123108386
0,4.823759556,20250904111144123,None,-26130,5.71127986907959,1,-4,0,-2,-3,-2,-2,-1,1756998704123238801
0,4.83116293,20250904111144131,None,-26131,12.850379943847656,1,2,1,-3,1,-1,-4,-3,1756998704130627632
0,4.831337691,20250904111144131,None,-26131,12.850379943847656,2,3,2,-1,-4,1,2,-2,1756998704130754232
0,4.846117497,20250904111144146,None,-26132,7.615039825439453,-4,-4,0,2,-1,1,-2,0,1756998704145722866
0,4.846327305,20250904111144146,None,-26132,7.615039825439453,-2,0,-3,-3,-2,-1,2,-1,1756998704145898818
0,4.853513003,20250904111144153,None,-26133,10.232709884643555,-2,2,-1,0,-2,-2,0,1,1756998704153214931
0,4.853618384,20250904111144153,None,-26133,10.232709884643555,-2,-1,-2,-2,0,1,-2,-1,1756998704153398990
0,4.8609876629999995,20250904111144160,None,-26134,9.756770133972168,0,3,-2,0,-2,-4,0,-1,1756998704160769939
0,4.861078262,20250904111144161,None,-26134,9.756770133972168,-3,-2,-1,0,0,1,1,-3,1756998704160908222
0,4.875881434,20250904111144175,None,-26135,7.615039825439453,0,-1,0,-1,-2,-2,-1,-5,1756998704175633907
0,4.875968695,20250904111144175,None,-26135,7.615039825439453,1,-4,-3,-1,0,-2,-2,1,1756998704175802707
0,4.883659601,20250904111144183,None,-26137,12.850379943847656,-1,-2,-1,-1,0,2,4,0,1756998704183413028
0,4.883771181,20250904111144183,None,-26137,12.850379943847656,-1,-1,-1,-1,-3,-1,-1,-1,1756998704183574438
0,4.890975714,20250904111144190,None,-26138,5.4733099937438965,1,0,0,0,0,-3,1,-1,1756998704190695285
0,4.891110897,20250904111144191,None,-26138,5.4733099937438965,-1,6,2,-3,0,-4,-1,1,1756998704190847158
0,4.906032086,20250904111144206,None,-26140,5.235340118408203,-5,-1,-1,0,-1,0,-4,-4,1756998704205761909
0,4.906178475,20250904111144206,None,-26140,5.235340118408203,2,-3,0,-1,1,-1,-6,0,1756998704205927848
0,4.913518667,20250904111144213,None,-26141,5.235340118408203,-2,-2,-1,-1,0,-2,2,-1,1756998704213263988
0,4.91369772,20250904111144213,None,-26141,5.235340118408203,3,7,1,-1,-3,-5,-1,3,1756998704213396787
0,4.920998335,20250904111144220,None,-26141,13.088349342346191,-1,-5,-1,0,-1,-2,-1,0,1756998704220758438
0,4.921322823,20250904111144221,None,-26141,13.088349342346191,-3,-3,1,-3,3,0,-5,-2,1756998704221090793
0,4.93602252,20250904111144236,None,-26143,10.946619987487793,-1,2,0,-2,1,-1,6,-1,1756998704235701799
0,4.936152697,20250904111144236,None,-26143,10.946619987487793,-1,1,-1,-2,-5,2,1,2,1756998704235921144
0,4.943408966,20250904111144243,None,-26144,9.280829429626465,0,1,-1,1,-2,-3,-1,0,1756998704243172168
0,4.943511248,20250904111144243,None,-26144,9.280829429626465,-2,-8,-3,-4,-5,-1,-4,-1,1756998704243328094
0,4.950944901,20250904111144250,None,-26145,9.280829429626465,0,0,3,1,-1,-4,-4,-1,1756998704250625133
0,4.951160908,20250904111144251,None,-26145,9.280829429626465,-1,-2,-1,-1,-1,4,-1,-4,1756998704250765800
0,4.965887785,20250904111144265,None,-26147,12.850379943847656,-2,0,-2,1,-2,-4,-8,-1,1756998704265651941
0,4.965986967,20250904111144265,None,-26147,12.850379943847656,-2,0,-3,-3,-2,1,7,1,1756998704265793323
0,4.973534107,20250904111144273,None,-26148,5.949249744415283,2,1,0,1,1,-3,-3,0,1756998704273186922
0,4.973623038,20250904111144273,None,-26148,5.949249744415283,-1,-3,-2,-2,-1,-3,-5,-4,1756998704273394584
0,4.980904102,20250904111144280,None,-26149,14.040229797363281,-4,-2,0,0,0,3,0,1,1756998704280690670
0,4.981127978,20250904111144281,None,-26149,14.040229797363281,-2,-2,-1,0,3,0,-4,-1,1756998704280874729
0,4.995947838,20250904111144295,None,-26150,5.4733099937438965,2,6,0,1,0,-3,3,-2,1756998704295667886
0,4.996072531,20250904111144296,None,-26150,5.4733099937438965,-3,-2,-3,-1,0,-3,-2,-3,1756998704295804977
0,5.003365994,20250904111144303,None,-26151,11.660530090332031,-3,-4,0,-3,-5,-1,-1,-4,1756998704303095102
0,5.003472567,20250904111144303,None,-26151,11.660530090332031,2,5,0,-1,-2,-4,0,-4,1756998704303210258
0,5.010950327,20250904111144310,None,-26152,9.280829429626465,-1,-1,0,-1,3,0,4,-2,1756998704310715436
0,5.01103282,20250904111144311,None,-26152,9.280829429626465,-1,0,0,0,-1,-4,-1,-3,1756998704310874700
0,5.02592516,20250904111144325,None,-26155,12.136469841003418,6,0,1,-2,-1,1,-2,1,1756998704325706005
0,5.026016951,20250904111144326,None,-26155,12.136469841003418,2,4,-1,1,1,0,0,-2,1756998704325868368
0,5.033587456,20250904111144333,None,-26155,12.136469841003418,-3,-8,-3,0,-1,-2,-1,1,1756998704333377838
0,5.033679485,20250904111144333,None,-26155,12.136469841003418,0,-2,-5,0,1,2,0,-6,1756998704333512306
0,5.040933609,20250904111144340,None,-26155,6.6631598472595215,1,0,0,1,0,-1,-1,0,1756998704340693950
0,5.04103446,20250904111144341,None,-26155,6.6631598472595215,0,3,-1,-3,0,2,-2,-1,1756998704340829372
0,5.055808067,20250904111144355,None,-26158,5.71127986907959,0,1,2,-3,-3,-3,0,-4,1756998704355599880
0,5.055894613,20250904111144355,None,-26158,5.71127986907959,-1,-2,0,-2,-3,-5,-6,-2,1756998704355719089
0,5.063345432,20250904111144363,None,-26159,14.040229797363281,3,1,-4,-1,1,1,2,3,1756998704363123178
0,5.063457251,20250904111144363,None,-26159,14.040229797363281,-3,-4,-3,-5,-2,1,-4,-1,1756998704363276720
0,5.071182728,20250904111144371,None,-26160,14.040229797363281,2,-1,0,0,1,-1,1,2,1756998704370658397
0,5.071411371,20250904111144371,None,-26160,14.040229797363281,1,-4,-1,2,1,0,-2,-2,1756998704370806932
0,5.086003781,20250904111144386,None,-26161,11.898499488830566,-2,-1,-3,-1,0,-3,1,-2,1756998704385681629
0,5.086172342,20250904111144386,None,-26161,11.898499488830566,1,5,-2,-4,-1,2,0,-2,1756998704385865688
0,5.093472719,20250904111144393,None,-26162,8.566919326782227,-4,-7,-2,-1,-1,-3,-3,-3,1756998704393194437
0,5.093603134,20250904111144393,None,-26162,8.566919326782227,-1,-3,-1,3,0,-2,1,-1,1756998704393354177
0,5.100967169,20250904111144400,None,-26163,9.756770133972168,-2,2,-2,-4,0,-3,-3,-2,1756998704400720119
0,5.1010921,20250904111144401,None,-26163,9.756770133972168,-1,2,1,1,-2,0,1,-2,1756998704400865316
0,5.115884066,20250904111144415,None,-26165,10.708649635314941,-2,-3,-2,0,1,1,3,1,1756998704415643453
0,5.115992785,20250904111144415,None,-26165,10.708649635314941,0,-3,-2,-2,-4,-4,-3,2,1756998704415768623
0,5.12341404,20250904111144423,None,-26165,6.901129722595215,4,2,0,-1,2,-2,-3,0,1756998704423174381
0,5.12352109,20250904111144423,None,-26165,6.901129722595215,-4,0,0,-2,-5,0,-2,0,1756998704423322916
0,5.130803347,20250904111144430,None,-26167,13.80225944519043,0,1,1,1,0,0,-5,1,1756998704430621623
0,5.130905152,20250904111144430,None,-26167,13.80225944519043,0,3,0,0,1,2,2,0,1756998704430736303
0,5.145972252,20250904111144445,None,-26169,5.71127986907959,-2,-4,-3,2,-3,-2,1,-2,1756998704445709705
0,5.146133423,20250904111144446,None,-26169,14.040229797363281,-4,1,0,2,-3,-1,0,0,1756998704445879459
0,5.153336764,20250904111144453,None,-26169,14.040229797363281,1,1,0,-3,0,-1,-2,0,1756998704453137397
0,5.153436661,20250904111144453,None,-26169,14.040229797363281,-1,-2,-1,0,0,1,-3,-1,1756998704453268051
0,5.160921097,20250904111144460,None,-26170,6.187219619750977,0,-1,-1,0,-1,-3,-1,-1,1756998704460716724
0,5.161010027,20250904111144460,None,-26170,6.187219619750977,-1,4,-1,0,-1,-3,-2,-2,1756998704460855007
0,5.175950527,20250904111144475,None,-26172,8.566919326782227,-2,-3,0,-1,-1,0,2,0,1756998704475692987
0,5.176069021,20250904111144476,None,-26172,8.566919326782227,-2,0,-2,3,3,2,4,1,1756998704475835800
0,5.183451653,20250904111144483,None,-26173,10.708649635314941,0,1,0,-1,2,-4,-1,-1,1756998704483259677
0,5.183561325,20250904111144483,None,-26173,10.708649635314941,-1,1,0,0,0,-1,-4,-1,1756998704483383893
0,5.190821171,20250904111144490,None,-26173,10.708649635314941,-1,-5,0,-1,-3,0,2,-1,1756998704490633487
0,5.190919876,20250904111144490,None,-26173,10.708649635314941,1,-1,-2,-5,-2,-1,-6,1,1756998704490745067
0,5.20589304,20250904111144505,None,-26175,7.37706995010376,-7,-3,-3,0,1,2,0,1,1756998704505664825
0,5.206008434,20250904111144505,None,-26175,7.37706995010376,-3,1,0,0,-1,1,6,0,1756998704505789279
0,5.213611603,20250904111144513,None,-26177,13.564290046691895,0,-1,-4,-2,0,-1,-2,-3,1756998704513143539
0,5.213790178,20250904111144513,None,-26177,13.564290046691895,0,4,1,-2,0,-2,-5,-2,1756998704513261318
0,5.221012592,20250904111144521,None,-26178,5.949249744415283,-2,-2,0,-4,-1,1,-2,3,1756998704520710706
0,5.221164465,20250904111144521,None,-26178,5.949249744415283,3,-1,-3,2,-1,-4,-1,2,1756998704520869970
0,5.235907555,20250904111144535,None,-26179,14.040229797363281,-2,-3,-3,0,-2,0,-1,1,1756998704535634517
0,5.236032725,20250904111144536,None,-26179,14.040229797363281,-2,-1,-3,-2,-3,0,-1,-1,1756998704535778760
0,5.243415356,20250904111144543,None,-26180,5.949249744415283,-1,0,-1,-2,-1,-2,-2,-3,1756998704543152809
0,5.243520022,20250904111144543,None,-26180,5.949249744415283,0,-1,0,-1,1,-1,-2,0,1756998704543287515
0,5.250994682,20250904111144550,None,-26181,12.850379943847656,-2,-1,0,2,-1,1,1,3,1756998704550715446
0,5.251123429,20250904111144551,None,-26181,12.850379943847656,-2,-1,4,3,0,3,0,-2,1756998704550868272
0,5.26597023,20250904111144565,None,-26183,7.8530097007751465,-1,-2,0,0,-1,-2,1,-2,1756998704565699815
0,5.26610136,20250904111144566,None,-26183,7.8530097007751465,-3,7,-2,2,1,-6,-6,-1,1756998704565852880
0,5.27346611,20250904111144573,None,-26185,10.708649635314941,1,1,-2,-1,-1,1,2,-1,1756998704573215246
0,5.27368927,20250904111144573,None,-26185,10.708649635314941,0,-4,-3,-2,0,-3,-1,-1,1756998704573472261
0,5.280964613,20250904111144580,None,-26185,10.470680236816406,-2,-1,-1,0,-1,-3,2,-3,1756998704580770254
0,5.281059504,20250904111144581,None,-26185,10.470680236816406,1,-2,-2,0,-1,-2,1,3,1756998704580904960
0,5.295909643,20250904111144595,None,-26187,13.088349342346191,1,4,0,-2,-3,1,0,-2,1756998704595664024
0,5.296011925,20250904111144595,None,-26187,13.088349342346191,-7,-9,-4,-2,-2,-1,-5,-3,1756998704595788955
0,5.303252936,20250904111144603,None,-26188,13.088349342346191,0,-1,-1,0,-1,-1,-1,-1,1756998704603074073
0,5.303393603,20250904111144603,None,-26188,5.71127986907959,1,2,0,-3,-3,-4,0,-3,1756998704603175401
0,5.310792446,20250904111144610,None,-26189,5.71127986907959,-1,4,1,-3,-3,-1,-1,-2,1756998704610632896
0,5.310878992,20250904111144610,None,-26189,5.71127986907959,1,0,-3,-1,-3,-2,2,-2,1756998704610746383
0,5.325814724,20250904111144625,None,-26190,5.4733099937438965,-1,-2,1,-1,-2,0,-2,-2,1756998704625641584
0,5.325910092,20250904111144625,None,-26190,5.4733099937438965,-2,-3,0,0,0,-3,0,-3,1756998704625767946
0,5.333361387,20250904111144633,None,-26191,13.326319694519043,1,1,1,2,-1,-2,-2,-2,1756998704633144855
0,5.333432198,20250904111144633,None,-26191,13.326319694519043,-2,-4,1,-2,-1,-1,1,-1,1756998704633251667
0,5.356631756,20250904111144656,None,-26193,10.946619987487793,-2,-2,0,2,-1,2,1,-1,1756998704656376361
0,5.356742859,20250904111144656,None,-26193,10.946619987487793,-2,0,-2,2,0,0,-2,1,1756998704656531095
0,5.357311249,20250904111144657,None,-26193,10.946619987487793,0,0,-5,0,-1,-1,-3,-4,1756998704657109260
0,5.357410431,20250904111144657,None,-26193,10.946619987487793,-1,-3,-2,-1,0,1,-1,-1,1756998704657217979
0,5.363475323,20250904111144663,None,-26194,9.756770133972168,-1,-4,-1,-2,0,0,2,2,1756998704663186550
0,5.363568545,20250904111144663,None,-26194,9.756770133972168,-3,4,-4,-2,-1,-3,-4,1,1756998704663250684
0,5.378630877,20250904111144678,None,-26197,13.088349342346191,-4,-2,0,0,-2,2,-1,-1,1756998704678134202
0,5.378812075,20250904111144678,None,-26197,13.088349342346191,0,3,-1,0,1,-1,3,0,1756998704678256988
0,5.385947466,20250904111144685,None,-26198,5.949249744415283,2,3,-3,-4,-1,1,-1,-3,1756998704685556173
0,5.386077643,20250904111144686,None,-26198,5.949249744415283,-4,-3,-1,-3,-1,0,0,-2,1756998704685620784
0,5.393619061,20250904111144693,None,-26199,5.949249744415283,0,-5,-2,0,0,-1,1,-3,1756998704693142890
0,5.393767357,20250904111144693,None,-26199,5.949249744415283,-2,7,-3,2,-2,1,-3,-1,1756998704693260192
0,5.408727408,20250904111144708,None,-26200,5.4733099937438965,-2,-4,-2,0,0,-2,-1,1,1756998704708161115
0,5.408894062,20250904111144708,None,-26200,5.4733099937438965,0,0,-2,0,3,4,2,-2,1756998704708259582
0,5.416078091,20250904111144716,None,-26201,13.326319694519043,1,2,-2,1,-5,-1,1,1,1756998704715624094
0,5.416352511,20250904111144716,None,-26201,13.326319694519043,-3,2,0,-4,-1,0,0,1,1756998704715732812
0,5.423962593,20250904111144723,None,-26202,6.901129722595215,-2,-4,-2,0,1,-2,2,-1,1756998704723182916
0,5.424186945,20250904111144724,None,-26202,6.901129722595215,-1,0,-1,-1,0,-1,-4,-1,1756998704723327636
0,5.4386549,20250904111144738,None,-26203,11.184589385986328,1,6,-1,0,0,-3,-4,-1,1756998704738080263
0,5.438801527,20250904111144738,None,-26203,11.184589385986328,3,-1,-1,-1,-1,1,-3,0,1756998704738173246
0,5.446436405,20250904111144746,None,-26204,9.518799781799316,-5,-4,-4,-3,1,-3,0,0,1756998704745618104
0,5.446660996,20250904111144746,None,-26204,9.518799781799316,-3,-7,-1,-4,-3,-3,1,-1,1756998704745725631
0,5.453685761,20250904111144753,None,-26205,8.566919326782227,-1,-2,-3,-3,0,-1,2,-1,1756998704753193616
0,5.453824759,20250904111144753,None,-26205,8.566919326782227,0,0,0,-3,1,0,-1,0,1756998704753344058
0,5.468995094,20250904111144769,None,-26208,12.136469841003418,0,-1,-3,0,-4,-4,-2,1,1756998704768254280
0,5.469214678,20250904111144769,None,-26208,12.136469841003418,-4,-2,-1,-2,-3,1,-1,-1,1756998704768416881
0,5.476251841,20250904111144776,None,-26208,6.187219619750977,0,-2,-1,1,-1,-7,-10,-4,1756998704775714874
0,5.476521492,20250904111144776,None,-26208,6.187219619750977,-2,0,-1,-2,2,7,10,2,1756998704775864362
0,5.491676092,20250904111144791,None,-26210,5.4733099937438965,1,0,-1,-1,-1,4,10,2,1756998704790886402
0,5.491821289,20250904111144791,None,-26210,5.4733099937438965,-4,-3,1,-1,0,-2,0,-1,1756998704791043996
0,5.498562813,20250904111144798,None,-26211,13.80225944519043,-1,-2,0,0,-3,-5,-5,-1,1756998704798148632
0,5.498659372,20250904111144798,None,-26211,13.80225944519043,-3,1,4,3,-3,-3,-4,-4,1756998704798254251
0,5.506039858,20250904111144806,None,-26212,13.80225944519043,4,2,-3,1,2,-3,-3,1,1756998704805638551
0,5.506144524,20250904111144806,None,-26212,13.80225944519043,-1,-4,-2,-3,-1,-3,-1,0,1756998704805761337
0,5.521667719,20250904111144821,None,-26213,11.660530090332031,-2,-5,1,-1,-2,-2,3,-2,1756998704820766687
0,5.521861077,20250904111144821,None,-26213,11.660530090332031,-4,4,0,-2,0,-2,-4,-2,1756998704820932388
0,5.528182745,20250904111144828,None,-26214,8.804889678955078,0,-7,3,0,-2,0,-1,1,1756998704828006982
0,5.528354883,20250904111144828,None,-26214,8.804889678955078,-3,4,2,0,2,-1,2,-1,1756998704828254938
0,5.536054611,20250904111144836,None,-26215,9.518799781799316,1,1,-2,-2,-2,0,-1,-1,1756998704835677146
0,5.536198378,20250904111144836,None,-26215,9.518799781799316,-4,-4,-2,1,-3,0,-2,-1,1756998704835867404
0,5.54323268,20250904111144843,None,-26217,11.898499488830566,0,0,-1,1,-3,0,-1,1,1756998704843066930
0,5.543327093,20250904111144843,None,-26217,11.898499488830566,1,2,-1,1,0,0,2,1,1756998704843173980
0,5.558472395,20250904111144858,None,-26217,6.6631598472595215,-1,-3,-1,0,0,-2,-3,-1,1756998704858184337
0,5.55863142,20250904111144858,None,-26217,6.6631598472595215,-4,-3,2,-3,3,2,1,-1,1756998704858355045
0,5.565979004,20250904111144865,None,-26219,13.80225944519043,-1,1,1,-1,-4,1,0,-1,1756998704865673542
0,5.566133261,20250904111144866,None,-26219,13.80225944519043,0,1,0,-2,-3,-4,-5,-6,1756998704865805149
0,5.573592186,20250904111144873,None,-26220,5.71127986907959,1,-2,0,-1,0,-2,1,2,1756998704873154878
0,5.573710919,20250904111144873,None,-26220,5.71127986907959,1,1,0,0,1,0,4,1,1756998704873281955
0,5.588500261,20250904111144888,None,-26221,13.80225944519043,-1,-1,-3,-3,-1,0,0,1,1756998704888216018
0,5.58863616,20250904111144888,None,-26221,13.80225944519043,0,0,-2,0,-4,-1,-2,-1,1756998704888376235
0,5.595895291,20250904111144895,None,-26222,6.187219619750977,-1,-1,2,-3,-3,2,-4,-1,1756998704895689725
0,5.595982552,20250904111144895,None,-26222,6.187219619750977,-2,6,-2,-1,-1,-1,-2,-2,1756998704895818233
0,5.60349536,20250904111144903,None,-26223,11.898499488830566,0,-3,-6,-1,0,-2,-3,-4,1756998704903244495
0,5.603600025,20250904111144903,None,-26223,11.898499488830566,1,-6,3,0,-2,0,6,2,1756998704903406381
0,5.618453503,20250904111144918,None,-26225,10.232709884643555,-3,1,2,0,3,-2,-5,0,1756998704918210983
0,5.618553877,20250904111144918,None,-26225,10.232709884643555,-3,-2,-2,-2,-4,-2,-4,3,1756998704918372869
0,5.625892639,20250904111144925,None,-26227,10.232709884643555,0,-3,0,-1,0,1,3,1,1756998704925651550
0,5.625989199,20250904111144925,None,-26227,10.232709884643555,-1,0,0,-1,-2,-4,-4,0,1756998704925790548
0,5.633812428,20250904111144933,None,-26227,11.184589385986328,-2,2,0,0,-1,-4,0,-2,1756998704933281898
0,5.634005308,20250904111144933,None,-26227,11.184589385986328,1,-3,-3,-2,-1,-1,-3,-1,1756998704933422565
0,5.648737431,20250904111144948,None,-26229,13.564290046691895,-1,0,0,0,1,-1,1,0,1756998704948202848
0,5.648936987,20250904111144948,None,-26229,13.564290046691895,0,-2,-1,1,-1,-2,2,-2,1756998704948369741
0,5.656221152,20250904111144956,None,-26230,5.4733099937438965,1,-1,0,0,1,2,-2,-1,1756998704955695390
0,5.656460762,20250904111144956,None,-26230,5.4733099937438965,1,-4,-3,-3,-3,2,-1,0,1756998704955831527
0,5.663698197,20250904111144963,None,-26231,5.4733099937438965,0,-3,-1,-2,0,2,-2,-1,1756998704963192939
0,5.663943291,20250904111144963,None,-26231,13.80225944519043,-2,-1,3,-2,-1,0,-2,-1,1756998704963351249
0,5.678755045,20250904111144978,None,-26232,5.949249744415283,0,-2,2,-1,-1,0,-1,0,1756998704978193998
0,5.678955794,20250904111144978,None,-26232,5.949249744415283,1,1,0,3,0,-3,-2,-2,1756998704978358983
0,5.686243057,20250904111144986,None,-26233,12.374439239501953,-3,1,-3,-2,-1,-1,-2,0,1756998704985839843
0,5.686450243,20250904111144986,None,-26233,12.374439239501953,-5,-10,0,0,1,3,0,-2,1756998704986025333
0,5.693472624,20250904111144993,None,-26234,8.328949928283691,2,-1,-3,-1,-2,-3,-3,0,1756998704993255853
0,5.693574667,20250904111144993,None,-26234,8.328949928283691,3,3,1,-3,0,-4,-2,0,1756998704993378162
0,5.70892787,20250904111145008,None,-26237,10.232709884643555,-2,-2,0,0,-4,-1,1,1,1756998705008408308
0,5.709127188,20250904111145009,None,-26237,10.232709884643555,-1,1,-1,-2,-1,0,2,-2,1756998705008609533
0,5.716540098,20250904111145016,None,-26237,10.946619987487793,-1,0,0,0,-3,-4,-6,-2,1756998705015940427
0,5.716823578,20250904111145016,None,-26237,10.946619987487793,-1,-1,-2,2,0,-1,4,1,1756998705016154050
0,5.723729134,20250904111145023,None,-26237,7.139100074768066,-1,-5,0,-4,1,-3,-3,1,1756998705023381948
0,5.723919153,20250904111145023,None,-26237,7.139100074768066,0,-3,1,1,0,-3,-4,-2,1756998705023575305
0,5.738618612,20250904111145038,None,-26240,5.4733099937438965,0,2,2,0,0,2,11,1,1756998705038374185
0,5.738702774,20250904111145038,None,-26240,5.4733099937438965,2,-1,0,1,-2,2,-2,3,1756998705038555383
0,5.746083498,20250904111145046,None,-26241,5.4733099937438965,1,-6,1,-2,-2,-3,-3,-1,1756998705045849323
0,5.746197462,20250904111145046,None,-26241,5.4733099937438965,-5,-1,-2,1,1,-2,2,-5,1756998705046046257
0,5.753328562,20250904111145053,None,-26242,14.040229797363281,-3,-1,-2,-1,2,3,-1,1,1756998705053115844
0,5.753397942,20250904111145053,None,-26242,14.040229797363281,-4,-3,-1,-1,-1,0,1,-3,1756998705053258180
0,5.768465042,20250904111145068,None,-26243,12.850379943847656,1,2,0,-4,-5,-2,-3,-1,1756998705068204641
0,5.768556595,20250904111145068,None,-26243,12.850379943847656,2,2,-1,1,-2,-2,-4,-1,1756998705068385362
0,5.775895119,20250904111145075,None,-26244,7.615039825439453,-4,-7,-4,-2,-2,0,2,-4,1756998705075696706
0,5.7759904859999995,20250904111145075,None,-26244,7.615039825439453,2,5,-1,-1,-2,0,2,0,1756998705075827360
0,5.783333779,20250904111145083,None,-26245,10.470680236816406,-4,-3,-4,-2,-1,-1,2,-2,1756998705083165645
0,5.783404112,20250904111145083,None,-26245,10.470680236816406,0,0,-1,0,0,0,1,1,1756998705083252429
0,5.798412085,20250904111145098,None,-26247,10.232709884643555,-4,2,-1,2,0,2,-1,-3,1756998705098159790
0,5.798512697,20250904111145098,None,-26247,10.232709884643555,0,1,-1,-3,-1,0,0,-1,1756998705098291397
0,5.805907965,20250904111145105,None,-26247,8.328949928283691,-2,-3,-1,-1,0,-1,0,-3,1756998705105685710
0,5.805992603,20250904111145105,None,-26247,8.328949928283691,-1,-3,0,-1,-3,-3,-3,1,1756998705105808496
0,5.813444376,20250904111145113,None,-26249,12.136469841003418,0,2,-1,-3,0,0,-1,-2,1756998705113172054
0,5.813526154,20250904111145113,None,-26249,12.136469841003418,0,-1,0,-4,0,0,3,2,1756998705113257408
0,5.828442574,20250904111145128,None,-26251,13.80225944519043,0,0,-2,-1,1,0,1,-1,1756998705128216981
0,5.828534126,20250904111145128,None,-26251,13.80225944519043,-3,1,1,3,3,-4,1,1,1756998705128383398
0,5.844093085,20250904111145144,None,-26252,5.4733099937438965,-2,-5,-1,-1,-1,-2,-2,0,1756998705143825292
0,5.84420228,20250904111145144,None,-26252,5.4733099937438965,0,-3,-1,-3,-2,0,-4,-2,1756998705143965721
0,5.844741106,20250904111145144,None,-26252,5.4733099937438965,-3,-1,1,-1,0,-1,-3,-3,1756998705144558906
0,5.844834328,20250904111145144,None,-26252,5.4733099937438965,1,1,0,0,1,-4,3,2,1756998705144663810
0,5.858373404,20250904111145158,None,-26254,7.615039825439453,2,3,0,-3,-2,-1,3,2,1756998705158138990
