gt,time_elapsed,current_time,current_task,motor_position,futek,emg0,emg1,emg2,emg3,emg4,emg5,emg6,emg7,emg_timer_stamp
0,0.038832665,20250904110913596,None,-12365,5.4733099937438965,-3,0,-1,-1,2,0,1,2,1756998553596130371
0,0.038964748,20250904110913596,None,-12365,5.4733099937438965,-2,-3,-4,-4,2,0,1,-4,1756998553596255064
0,0.046145439,20250904110913603,None,-12365,13.088349342346191,-1,-3,-1,-2,-2,1,-3,-2,1756998553603556394
0,0.046261072,20250904110913603,None,-12365,13.088349342346191,-1,-2,-1,2,-1,1,1,-2,1756998553603670358
0,0.053628683,20250904110913611,None,-12366,6.901129722595215,0,0,0,-1,-3,-6,0,1,1756998553611034870
0,0.053787232,20250904110913611,None,-12366,6.901129722595215,-2,-2,0,0,1,2,-1,1,1756998553611145496
0,0.068700552,20250904110913626,None,-12368,9.04286003112793,0,-2,3,-2,-1,-4,-1,-3,1756998553626090049
0,0.06884408,20250904110913626,None,-12368,9.04286003112793,0,-1,2,-2,-1,-2,0,-4,1756998553626218318
0,0.076333284,20250904110913633,None,-12369,9.04286003112793,2,-4,1,-2,0,-1,-1,2,1756998553633536815
0,0.076486349,20250904110913634,None,-12369,8.804889678955078,-3,-5,0,0,-1,-4,-1,-1,1756998553633787155
0,0.083821535,20250904110913641,None,-12369,8.804889678955078,0,1,2,0,1,1,2,1,1756998553641170501
0,0.083974123,20250904110913641,None,-12369,8.804889678955078,-1,0,-3,-4,-2,0,-1,-2,1756998553641370058
0,0.098916769,20250904110913656,None,-12372,6.187219619750977,-5,-2,-3,-3,0,-1,-2,-1,1756998553656301975
0,0.099057198,20250904110913656,None,-12372,6.187219619750977,0,-2,-2,-1,2,1,-1,-1,1756998553656465291
0,0.106562853,20250904110913664,None,-12373,13.80225944519043,2,3,1,-2,-7,-3,-2,0,1756998553663863658
0,0.106748819,20250904110913664,None,-12373,13.80225944519043,0,0,0,1,6,-1,1,0,1756998553664047718
0,0.113909006,20250904110913671,None,-12374,13.80225944519043,0,-1,-1,-1,-2,-1,-4,-2,1756998553671185970
0,0.114151716,20250904110913671,None,-12374,13.80225944519043,0,3,1,-1,-1,0,1,-1,1756998553671366930
0,0.137089491,20250904110913694,None,-12376,6.425189971923828,0,-1,-1,-1,-1,-1,-1,0,1756998553694390058
0,0.137289286,20250904110913694,None,-12376,6.425189971923828,-1,-2,-1,-1,-1,-2,-1,-2,1756998553694570779
0,0.137740374,20250904110913695,None,-12376,6.425189971923828,2,0,2,-1,-3,-1,0,-2,1756998553695102930
0,0.138224363,20250904110913695,None,-12376,6.425189971923828,-2,1,-1,-3,0,0,0,0,1756998553695217132
0,0.143983603,20250904110913701,None,-12377,11.42255973815918,-2,0,-1,-4,2,0,2,-1,1756998553701147317
0,0.144131899,20250904110913701,None,-12377,11.42255973815918,1,2,-2,-2,-1,-4,-3,-2,1756998553701262950
0,0.159009218,20250904110913716,None,-12378,8.566919326782227,1,0,0,-1,-1,-2,-1,-1,1756998553716171503
0,0.159164906,20250904110913716,None,-12378,8.566919326782227,-3,1,1,-2,0,-1,-2,2,1756998553716467857
0,0.166344643,20250904110913723,None,-12379,9.280829429626465,-2,-3,1,0,-3,-1,-1,-2,1756998553723614931
0,0.166520119,20250904110913724,None,-12379,9.280829429626465,0,-2,-3,-1,-1,-1,-1,0,1756998553723739862
0,0.173835039,20250904110913731,None,-12381,11.42255973815918,0,1,-1,-1,-4,1,3,-2,1756998553731157302
0,0.173962593,20250904110913731,None,-12381,11.42255973815918,-1,-2,-2,0,-2,0,0,-6,1756998553731351613
0,0.188937664,20250904110913746,None,-12383,13.80225944519043,-1,-3,-1,-3,-3,-1,-3,-1,1756998553746223211
0,0.18909502,20250904110913746,None,-12383,13.80225944519043,-1,-3,-1,2,2,3,1,-1,1756998553746416807
0,0.196445942,20250904110913754,None,-12384,13.80225944519043,-1,-4,-1,0,2,-2,0,-2,1756998553753718852
0,0.196568966,20250904110913754,None,-12384,13.80225944519043,0,2,2,-1,0,-1,-2,-2,1756998553753893375
0,0.203740358,20250904110913761,None,-12384,5.71127986907959,-1,-1,0,-3,1,-1,-1,-5,1756998553761130332
0,0.203828335,20250904110913761,None,-12384,5.71127986907959,0,-4,0,-2,-4,1,-2,-1,1756998553761279821
0,0.218824625,20250904110913776,None,-12386,6.187219619750977,-3,-1,-2,-1,-2,1,-2,0,1756998553776192188
0,0.218935728,20250904110913776,None,-12386,6.187219619750977,-1,-2,-2,0,3,0,1,0,1756998553776371717
0,0.226296425,20250904110913783,None,-12387,11.898499488830566,-3,1,1,-1,-1,1,-2,-2,1756998553783651351
0,0.226379871,20250904110913784,None,-12387,11.898499488830566,2,1,-1,0,-1,-2,-4,-1,1756998553783778667
0,0.233936548,20250904110913791,None,-12388,11.898499488830566,-1,-2,-1,-2,-2,0,-1,-3,1756998553791207313
0,0.23409605,20250904110913791,None,-12388,11.898499488830566,-5,-3,-3,-1,-3,0,-2,-2,1756998553791416883
0,0.248891592,20250904110913806,None,-12389,9.756770133972168,0,1,0,0,-2,-1,-2,-2,1756998553806243896
0,0.248995781,20250904110913806,None,-12389,9.756770133972168,-3,0,-1,-2,0,-3,0,-1,1756998553806417465
0,0.256299496,20250904110913813,None,-12391,10.232709884643555,0,-1,-1,-1,-1,-5,-2,-1,1756998553813673734
0,0.256427288,20250904110913814,None,-12391,10.232709884643555,-2,1,-1,-3,-7,0,-2,-3,1756998553813808917
0,0.263693333,20250904110913821,None,-12391,7.139100074768066,-2,-1,-4,4,6,-1,0,1,1756998553821126699
0,0.263786793,20250904110913821,None,-12391,7.139100074768066,-1,1,-3,1,-4,0,0,1,1756998553821248054
0,0.278745175,20250904110913836,None,-12393,13.326319694519043,0,0,-1,-2,-2,2,-1,-1,1756998553836102247
0,0.27887249,20250904110913836,None,-12393,13.326319694519043,-4,-5,-1,-3,-2,-3,1,-3,1756998553836215257
0,0.286353588,20250904110913844,None,-12394,5.71127986907959,-2,-1,-3,-1,-2,-3,-3,-1,1756998553843681812
0,0.286452055,20250904110913844,None,-12394,5.71127986907959,-1,0,-3,-3,-1,0,-2,2,1756998553843843698
0,0.293750763,20250904110913851,None,-12395,13.80225944519043,-2,1,0,0,-4,-1,1,-4,1756998553851127386
0,0.293875933,20250904110913851,None,-12395,13.80225944519043,-1,-2,0,-2,-3,-2,0,-2,1756998553851261854
0,0.308803082,20250904110913866,None,-12397,12.850379943847656,1,2,-3,1,-3,-2,-1,1,1756998553866155624
0,0.308901549,20250904110913866,None,-12397,12.850379943847656,0,0,-1,1,0,4,0,3,1756998553866254568
0,0.316246987,20250904110913873,None,-12398,12.850379943847656,-1,-1,-1,0,0,-4,2,1,1756998553873656749
0,0.31635499,20250904110913873,None,-12398,12.850379943847656,-2,0,-1,-2,0,0,-1,-2,1756998553873770236
0,0.323868513,20250904110913881,None,-12398,8.09097957611084,-2,-1,-2,0,-1,1,-1,-3,1756998553881236791
0,0.323994875,20250904110913881,None,-12398,8.09097957611084,-1,1,1,1,0,1,2,0,1756998553881423950
0,0.338806629,20250904110913896,None,-12401,10.708649635314941,0,-3,0,-3,1,-3,0,-3,1756998553896155834
0,0.338927269,20250904110913896,None,-12401,10.708649635314941,-2,0,-2,1,1,0,2,-1,1756998553896288394
0,0.346208811,20250904110913903,None,-12401,7.615039825439453,-4,1,-1,1,0,-1,-1,0,1756998553903624534
0,0.346323967,20250904110913903,None,-12401,7.615039825439453,2,1,-1,-2,-1,1,-1,-1,1756998553903746366
0,0.353791714,20250904110913911,None,-12403,7.615039825439453,0,-1,0,-1,1,-1,1,1,1756998553911210775
0,0.353895187,20250904110913911,None,-12403,7.615039825439453,0,0,-2,-3,-3,-2,0,-1,1756998553911347389
0,0.368906736,20250904110913926,None,-12404,5.71127986907959,-1,-1,-1,-5,0,-2,0,-1,1756998553926170587
0,0.369048834,20250904110913926,None,-12404,5.71127986907959,0,-4,-3,0,1,-1,-2,-2,1756998553926324367
0,0.376189947,20250904110913933,None,-12405,13.564290046691895,-2,0,0,0,0,-1,-3,-1,1756998553933605194
0,0.376288653,20250904110913933,None,-12405,13.564290046691895,0,3,-1,-2,-1,-2,0,1,1756998553933725595
0,0.383981228,20250904110913941,None,-12406,5.71127986907959,-3,-2,1,2,0,-1,0,-2,1756998553941144466
0,0.384161949,20250904110913941,None,-12406,5.71127986907959,-1,-1,0,-3,2,-5,0,0,1756998553941317081
0,0.398876667,20250904110913956,None,-12408,12.850379943847656,-2,-3,1,-1,-2,-2,-2,0,1756998553956218481
0,0.398982048,20250904110913956,None,-12408,12.850379943847656,-1,0,-3,-3,-1,-4,2,-1,1756998553956422090
0,0.414427042,20250904110913972,None,-12409,10.708649635314941,-2,-2,2,-3,-4,-2,-1,1,1756998553971783638
0,0.414541245,20250904110913972,None,-12409,10.708649635314941,0,1,-3,1,6,1,2,0,1756998553971933841
0,0.415108442,20250904110913972,None,-12409,10.708649635314941,0,-1,0,-1,-3,-3,-1,0,1756998553972512245
0,0.415202141,20250904110913972,None,-12409,10.708649635314941,1,2,-1,0,-1,-2,0,1,1756998553972631692
0,0.428833962,20250904110913986,None,-12411,7.8530097007751465,-2,-2,-1,-2,-3,-1,-1,-1,1756998553986190557
0,0.428944826,20250904110913986,None,-12411,7.8530097007751465,-1,0,1,-3,-1,-3,1,1,1756998553986352205
0,0.436205387,20250904110913993,None,-12413,7.8530097007751465,3,5,-1,-1,0,0,-4,-2,1756998553993642568
0,0.436410427,20250904110913994,None,-12413,7.8530097007751465,-2,-3,-2,2,1,2,1,2,1756998553993856191
0,0.443713427,20250904110914001,None,-12414,12.374439239501953,-1,0,0,-4,0,-3,-1,-2,1756998554001131296
0,0.44384718,20250904110914001,None,-12414,12.374439239501953,-1,-2,-1,0,-1,-2,0,-5,1756998554001261711
0,0.458741427,20250904110914016,None,-12415,13.564290046691895,-3,-1,-2,-1,0,-3,-1,2,1756998554016112804
0,0.4588449,20250904110914016,None,-12415,13.564290046691895,1,-5,0,-1,-1,1,-1,-1,1756998554016253948
0,0.46632123,20250904110914023,None,-12416,5.4733099937438965,0,2,1,0,0,0,4,-1,1756998554023743152
0,0.466398001,20250904110914024,None,-12416,5.4733099937438965,1,0,-1,-1,-1,-2,-3,-2,1756998554023912668
0,0.474012137,20250904110914031,None,-12417,13.326319694519043,-2,1,1,-3,0,0,-2,0,1756998554031194210
0,0.474266052,20250904110914031,None,-12417,13.326319694519043,-2,-1,-1,1,-1,0,2,0,1756998554031341314
0,0.488899231,20250904110914046,None,-12418,7.37706995010376,0,-1,-4,-2,-3,-1,-3,-2,1756998554046205759
0,0.489093065,20250904110914046,None,-12418,7.37706995010376,1,3,0,1,-1,-1,0,2,1756998554046428680
0,0.496226549,20250904110914053,None,-12419,11.42255973815918,-1,3,0,1,-1,-1,-1,1,1756998554053616523
0,0.496322394,20250904110914053,None,-12419,11.42255973815918,-2,-2,-3,-2,-1,0,2,1,1756998554053737163
0,0.503887177,20250904110914061,None,-12420,9.756770133972168,-1,0,-2,-2,-1,-2,-1,2,1756998554061214685
0,0.504034996,20250904110914061,None,-12420,9.756770133972168,-2,0,-1,-1,-4,-2,0,-2,1756998554061433315
0,0.518805981,20250904110914076,None,-12421,8.328949928283691,-1,1,0,-2,-2,0,-1,1,1756998554076121330
0,0.519020081,20250904110914076,None,-12423,8.328949928283691,1,-2,-4,-1,0,2,1,0,1756998554076252937
0,0.526247978,20250904110914083,None,-12423,11.898499488830566,-2,0,2,-1,2,-2,0,0,1756998554083655595
0,0.526350737,20250904110914083,None,-12423,11.898499488830566,-1,0,-2,0,-3,-5,1,-2,1756998554083797454
0,0.549932242,20250904110914107,None,-12426,5.4733099937438965,-1,-3,0,-1,0,1,1,-1,1756998554106833457
0,0.550131083,20250904110914107,None,-12426,5.4733099937438965,-2,-4,1,-3,-1,-2,-3,-1,1756998554106975078
0,0.550236464,20250904110914107,None,-12426,5.4733099937438965,0,0,1,0,0,-1,-1,-2,1756998554107646942
0,0.550328493,20250904110914107,None,-12426,5.4733099937438965,1,2,-1,-1,2,1,-2,-1,1756998554107768058
0,0.55679965,20250904110914114,None,-12427,5.4733099937438965,3,0,-1,-3,1,0,1,-2,1756998554113916873
0,0.557034969,20250904110914114,None,-12427,5.4733099937438965,-2,-2,1,-1,-1,-1,1,1,1756998554114133834
0,0.564268589,20250904110914121,None,-12427,13.326319694519043,-3,-3,-1,0,0,0,0,0,1756998554121356487
0,0.564540863,20250904110914122,None,-12427,13.326319694519043,-1,-1,-1,-4,-3,0,-4,-3,1756998554121575117
0,0.579227448,20250904110914136,None,-12429,11.184589385986328,0,-2,1,1,3,2,-1,0,1756998554136358737
0,0.579435825,20250904110914137,None,-12429,11.184589385986328,1,0,-2,-1,-1,-3,-1,0,1756998554136544704
0,0.586730957,20250904110914144,None,-12430,9.04286003112793,1,2,-1,-2,-1,-2,2,0,1756998554143837213
0,0.586894989,20250904110914144,None,-12430,9.04286003112793,-1,3,-1,-5,-5,-4,-5,-3,1756998554144017457
0,0.594161749,20250904110914151,None,-12431,9.04286003112793,-1,-2,-1,1,1,-3,-2,-2,1756998554151302814
0,0.594349384,20250904110914151,None,-12431,9.04286003112793,-1,-3,1,-2,0,-1,-1,-2,1756998554151483297
0,0.609208346,20250904110914166,None,-12433,11.660530090332031,-2,1,-2,0,0,2,-1,-1,1756998554166357755
0,0.609389544,20250904110914167,None,-12433,11.660530090332031,1,-1,-2,7,-1,-1,-1,2,1756998554166550636
0,0.616583586,20250904110914174,None,-12434,7.139100074768066,2,-3,2,0,1,0,-1,1,1756998554173776626
0,0.616779804,20250904110914174,None,-12434,7.139100074768066,0,-1,-1,-2,-2,-1,-3,-1,1756998554173941612
0,0.624094248,20250904110914181,None,-12435,13.564290046691895,3,1,1,0,1,-1,1,-3,1756998554181244373
0,0.624263525,20250904110914181,None,-12435,13.564290046691895,-2,0,-2,0,-1,0,-2,-1,1756998554181414365
0,0.639217377,20250904110914196,None,-12436,5.71127986907959,-1,1,0,-1,-1,0,0,-4,1756998554196341753
0,0.639401913,20250904110914197,None,-12436,5.71127986907959,-2,-1,-2,-1,2,-1,-2,1,1756998554196566104
0,0.654571533,20250904110914212,None,-12438,5.71127986907959,-2,0,2,0,0,-2,-1,-1,1756998554211761474
0,0.65477705,20250904110914212,None,-12438,5.71127986907959,-1,0,-3,-4,0,-1,-1,-2,1756998554211898565
0,0.655296803,20250904110914212,None,-12438,5.71127986907959,1,1,0,1,-3,1,-2,-2,1756998554212584018
0,0.655467749,20250904110914213,None,-12438,5.71127986907959,-3,-3,-3,2,-5,-1,-1,-1,1756998554212678909
0,0.677818537,20250904110914235,None,-12440,8.566919326782227,0,0,-3,1,-1,0,-1,1,1756998554235063076
0,0.678007603,20250904110914235,None,-12440,8.566919326782227,0,-4,-2,-2,0,2,0,-3,1756998554235244512
0,0.678278208,20250904110914235,None,-12441,8.566919326782227,0,2,1,0,-2,-1,2,-1,1756998554235713243
0,0.678352118,20250904110914235,None,-12441,8.566919326782227,0,-1,0,1,0,-1,-2,-1,1756998554235823154
0,0.699623585,20250904110914257,None,-12443,6.6631598472595215,1,0,-2,0,1,-1,-2,-1,1756998554256793737
0,0.699775219,20250904110914257,None,-12443,6.6631598472595215,-3,0,-2,0,-1,1,-1,-2,1756998554256920814
0,0.700386763,20250904110914258,None,-12443,6.6631598472595215,0,1,2,-3,3,-2,-3,-2,1756998554257622480
0,0.700555563,20250904110914258,None,-12443,6.6631598472595215,2,-4,-1,1,0,0,-1,0,1756998554257766723
0,0.706468582,20250904110914264,None,-12445,13.326319694519043,1,2,-2,-3,-3,1,-2,-2,1756998554263652086
0,0.706655741,20250904110914264,None,-12445,13.326319694519043,-1,-1,-3,-1,-2,-2,-1,-1,1756998554263779640
0,0.714010477,20250904110914271,None,-12445,13.326319694519043,0,-3,1,0,-2,0,2,1,1756998554271152734
0,0.714196921,20250904110914271,None,-12445,13.326319694519043,0,-3,-2,1,0,0,-1,-2,1756998554271261930
0,0.729010344,20250904110914286,None,-12447,13.80225944519043,-2,-1,0,0,0,-1,-3,-2,1756998554286144971
0,0.729493857,20250904110914287,None,-12447,13.80225944519043,-2,1,-1,-1,-1,-3,-3,-1,1756998554286263704
0,0.736515045,20250904110914294,None,-12448,5.71127986907959,0,1,2,0,-1,-2,0,-1,1756998554293670654
0,0.736733675,20250904110914294,None,-12448,5.71127986907959,0,2,-2,0,-3,0,-1,1,1756998554293810844
0,0.743931294,20250904110914301,None,-12449,12.136469841003418,2,-5,1,-1,-3,1,0,-2,1756998554301114320
0,0.744113207,20250904110914301,None,-12449,12.136469841003418,0,2,-3,-2,-1,-5,0,0,1756998554301245927
0,0.759041786,20250904110914316,None,-12451,8.09097957611084,-3,0,1,-5,-2,1,-3,0,1756998554316169023
0,0.759246588,20250904110914316,None,-12451,8.09097957611084,0,-1,-1,-1,2,0,2,-1,1756998554316340923
0,0.76636076,20250904110914324,None,-12453,9.994739532470703,-1,2,0,0,-1,-2,-1,0,1756998554323678493
0,0.766514063,20250904110914324,None,-12453,9.994739532470703,-4,-3,1,0,-2,-2,0,0,1756998554323811292
0,0.773834467,20250904110914331,None,-12453,11.184589385986328,-2,-1,-2,1,-2,-3,-3,0,1756998554331197500
0,0.774027586,20250904110914331,None,-12453,11.184589385986328,-2,-2,-2,0,2,-2,1,1,1756998554331356525
0,0.788910866,20250904110914346,None,-12455,7.615039825439453,-1,-1,2,-2,1,1,0,0,1756998554346245288
0,0.789059878,20250904110914346,None,-12455,7.615039825439453,1,2,0,-1,-1,1,-1,0,1756998554346411466
0,0.805027485,20250904110914362,None,-12457,5.4733099937438965,-4,-1,-2,-1,-4,-1,-1,0,1756998554362481594
0,0.805122137,20250904110914362,None,-12457,5.4733099937438965,-4,-3,0,-1,2,-1,1,0,1756998554362612247
0,0.805849552,20250904110914363,None,-12457,13.564290046691895,2,-1,0,0,-4,1,3,0,1756998554363250970
0,0.805922508,20250904110914363,None,-12457,13.564290046691895,-2,0,-3,1,-1,1,-3,1,1756998554363360166
0,0.818734646,20250904110914376,None,-12458,5.71127986907959,-3,-1,0,0,-3,-1,-1,1,1756998554376168251
0,0.818821669,20250904110914376,None,-12458,5.71127986907959,-1,-4,-1,-2,-1,-3,-1,-1,1756998554376294612
0,0.826122761,20250904110914383,None,-12459,12.612409591674805,-1,1,-3,0,0,-1,-2,-5,1756998554383618116
0,0.826183319,20250904110914383,None,-12459,12.612409591674805,2,-2,-2,0,0,0,0,0,1756998554383731126
0,0.833678961,20250904110914391,None,-12460,12.612409591674805,-2,0,0,-1,0,1,0,-1,1756998554391108751
0,0.833759546,20250904110914391,None,-12460,12.612409591674805,0,-4,-1,0,-2,1,-1,-1,1756998554391255617
0,0.848790407,20250904110914406,None,-12461,10.232709884643555,-4,0,0,-1,0,-1,-1,-3,1756998554406205415
0,0.848871231,20250904110914406,None,-12461,10.232709884643555,-2,1,0,-5,-1,2,-3,0,1756998554406360149
0,0.85624361,20250904110914413,None,-12462,9.994739532470703,1,-2,-2,-2,-1,-2,-1,-2,1756998554413682699
0,0.856322289,20250904110914413,None,-12462,9.994739532470703,1,-3,-3,-2,0,-1,1,1,1756998554413815498
0,0.863800049,20250904110914421,None,-12463,7.615039825439453,1,-2,1,-1,3,1,1,1,1756998554421190977
0,0.86390996,20250904110914421,None,-12463,7.615039825439453,-2,-1,0,-1,-3,-1,-1,-2,1756998554421360492
0,0.878741026,20250904110914436,None,-12466,12.612409591674805,-1,2,-1,-4,-4,-4,1,-2,1756998554436135530
0,0.878828049,20250904110914436,None,-12466,12.612409591674805,0,-1,-3,-4,-3,2,-1,-3,1756998554436281919
0,0.886170626,20250904110914443,None,-12466,5.4733099937438965,2,1,1,-2,2,1,-2,-3,1756998554443646669
0,0.88623476,20250904110914443,None,-12466,5.4733099937438965,-1,-3,0,-2,2,0,-3,-2,1756998554443759918
0,0.893678188,20250904110914451,None,-12467,13.326319694519043,0,0,2,1,-1,-2,1,2,1756998554451125144
0,0.893767834,20250904110914451,None,-12467,13.326319694519043,1,-1,2,2,0,-2,0,-2,1756998554451256275
0,0.908868075,20250904110914466,None,-12469,13.088349342346191,0,-1,-1,-1,-5,2,-2,2,1756998554466263532
0,0.908976078,20250904110914466,None,-12469,13.088349342346191,0,-3,-3,1,-3,-2,0,0,1756998554466425657
0,0.916260243,20250904110914473,None,-12470,7.37706995010376,2,0,0,1,-1,-2,-1,1,1756998554473708391
0,0.916370869,20250904110914474,None,-12470,7.37706995010376,-2,-4,-3,-2,2,-2,-1,0,1756998554473879098
0,0.931278944,20250904110914488,None,-12471,10.946619987487793,-2,-4,-1,3,-1,0,-2,-3,1756998554488710641
0,0.931375504,20250904110914489,None,-12471,10.946619987487793,0,0,0,0,-1,-1,-1,1,1756998554488864421
0,0.938743353,20250904110914496,None,-12472,9.756770133972168,0,-3,-2,0,-3,-3,0,-1,1756998554496143817
0,0.93882823,20250904110914496,None,-12472,9.756770133972168,-1,-4,-2,-2,0,-1,-1,0,1756998554496296644
0,0.946240664,20250904110914503,None,-12473,8.804889678955078,-2,0,-2,-2,-3,-2,-1,-1,1756998554503661155
0,0.946332693,20250904110914503,None,-12473,8.804889678955078,-2,1,-1,-1,4,2,0,3,1756998554503794670
0,0.96140337,20250904110914519,None,-12475,12.374439239501953,2,0,-1,-3,-1,-6,-1,-1,1756998554518731832
0,0.961611986,20250904110914519,None,-12476,12.374439239501953,0,-3,0,-6,-2,1,-3,-1,1756998554518893718
0,0.968890429,20250904110914526,None,-12476,5.949249744415283,-3,0,0,-2,-2,1,2,0,1756998554526273250
0,0.969052315,20250904110914526,None,-12476,5.949249744415283,1,-1,-1,-3,-1,1,0,-1,1756998554526507616
0,0.97630167,20250904110914533,None,-12477,13.564290046691895,-1,-2,1,-2,-3,0,2,2,1756998554533722400
0,0.976367712,20250904110914534,None,-12477,13.564290046691895,-3,-2,-1,-2,0,-1,-1,-3,1756998554533878564
0,0.991317749,20250904110914548,None,-12479,5.4733099937438965,-1,-4,-2,-3,-2,-4,3,-2,1756998554548704624
0,0.991544485,20250904110914549,None,-12479,13.088349342346191,-1,-5,1,-2,0,0,-1,-1,1756998554548868656
0,0.998736382,20250904110914556,None,-12479,13.088349342346191,-1,1,-2,-1,-2,-1,-1,1,1756998554556168556
0,0.998941422,20250904110914556,None,-12480,13.088349342346191,2,-4,-1,-4,-3,0,-4,0,1756998554556298494
0,1.006222725,20250904110914563,None,-12480,6.6631598472595215,-1,1,-2,-1,-1,0,-1,-1,1756998554563665866
0,1.006293535,20250904110914563,None,-12480,6.6631598472595215,0,-2,1,2,0,0,3,1,1756998554563808679
0,1.021832943,20250904110914579,None,-12482,9.04286003112793,-4,-3,-2,0,1,-2,-4,-7,1756998554578809022
0,1.022030592,20250904110914579,None,-12482,9.04286003112793,-2,-1,-1,-2,-4,-2,0,-2,1756998554578982591
0,1.028868914,20250904110914586,None,-12483,8.804889678955078,1,0,0,-2,2,-1,0,-3,1756998554586233139
0,1.029008389,20250904110914586,None,-12483,8.804889678955078,0,-2,0,-1,0,-3,-2,-1,1756998554586389780
0,1.036280871,20250904110914593,None,-12483,8.804889678955078,-4,-3,-3,-4,-2,-1,0,-1,1756998554593686819
0,1.036398411,20250904110914594,None,-12483,8.804889678955078,-2,-2,-2,0,-4,-1,-3,-1,1756998554593863010
0,1.051319838,20250904110914608,None,-12486,6.187219619750977,0,0,0,3,6,-1,1,-2,1756998554608725786
0,1.0514183049999999,20250904110914609,None,-12486,6.187219619750977,-4,0,-1,-2,-3,-3,-2,0,1756998554608911514
0,1.058701992,20250904110914616,None,-12487,13.564290046691895,-1,-1,0,-2,-2,-1,-2,-1,1756998554616138458
0,1.05877018,20250904110914616,None,-12487,13.564290046691895,-1,-2,-1,1,-1,1,0,-1,1756998554616283178
0,1.066340685,20250904110914623,None,-12488,5.4733099937438965,-3,-3,-1,-1,-1,-2,1,-1,1756998554623777389
0,1.066428661,20250904110914624,None,-12488,5.4733099937438965,1,-2,0,-3,-5,-4,0,2,1756998554623932361
0,1.081680536,20250904110914639,None,-12489,13.564290046691895,-4,-4,-2,-2,-1,-4,-1,-3,1756998554639098405
0,1.081781387,20250904110914639,None,-12489,13.564290046691895,0,0,-1,2,0,0,2,-1,1756998554639258384
0,1.089065313,20250904110914646,None,-12490,6.6631598472595215,0,0,-2,1,-1,-4,-2,-3,1756998554646398782
0,1.089206696,20250904110914646,None,-12490,6.6631598472595215,-1,-1,-1,-1,-5,0,-1,-3,1756998554646578073
0,1.096378327,20250904110914654,None,-12491,11.660530090332031,0,-1,0,0,0,0,-1,1,1756998554653742551
0,1.096500635,20250904110914654,None,-12491,11.660530090332031,-2,0,-4,-3,-1,-1,-3,0,1756998554653880596
0,1.1113245489999999,20250904110914668,None,-12493,9.04286003112793,-3,0,-2,-1,0,0,-2,-3,1756998554668701887
0,1.1114223,20250904110914669,None,-12493,9.04286003112793,-2,-1,0,3,0,0,-2,0,1756998554668844699
0,1.118674517,20250904110914676,None,-12493,9.518799781799316,-3,1,-2,-1,-5,1,1,0,1756998554676105737
0,1.118752003,20250904110914676,None,-12493,9.518799781799316,2,1,-2,-4,-2,-1,0,3,1756998554676244735
0,1.1262378690000001,20250904110914683,None,-12495,11.898499488830566,-5,-3,-1,-6,-5,-3,-4,-4,1756998554683676004
0,1.126326084,20250904110914683,None,-12495,11.898499488830566,-2,-1,-1,4,5,1,0,-3,1756998554683816671
0,1.141675711,20250904110914699,None,-12497,13.80225944519043,1,-1,-1,-3,-4,0,-2,-4,1756998554699086427
0,1.141762972,20250904110914699,None,-12497,13.80225944519043,-1,2,-3,-5,-1,-3,-4,-2,1756998554699257135
0,1.14872694,20250904110914706,None,-12498,13.80225944519043,-3,0,-1,-1,-1,-2,-2,0,1756998554706155776
0,1.148920298,20250904110914706,None,-12498,5.4733099937438965,-4,0,2,1,-1,5,2,-2,1756998554706253767
0,1.156142473,20250904110914713,None,-12499,5.4733099937438965,0,1,-1,-2,-7,-3,-4,-3,1756998554713629484
0,1.156244278,20250904110914713,None,-12499,5.4733099937438965,-2,-5,1,-1,3,0,0,-1,1756998554713752508
0,1.171147823,20250904110914728,None,-12500,5.949249744415283,1,2,-1,-1,-2,-1,1,0,1756998554728572845
0,1.171243429,20250904110914728,None,-12500,5.949249744415283,-2,-1,-2,1,-4,-2,0,-2,1756998554728708982
0,1.178937674,20250904110914736,None,-12501,11.898499488830566,-2,-3,-3,-2,1,-1,-3,-1,1756998554736150503
0,1.179080248,20250904110914736,None,-12501,11.898499488830566,-3,-2,-4,-3,0,0,-1,-2,1756998554736266613
0,1.1862692830000001,20250904110914743,None,-12502,8.09097957611084,-2,-3,0,-1,-2,-1,-1,-2,1756998554743628263
0,1.186408997,20250904110914744,None,-12502,8.09097957611084,-1,-1,0,-2,1,0,1,-1,1756998554743753910
0,1.201329947,20250904110914758,None,-12505,9.756770133972168,0,0,-3,-2,-1,-1,1,0,1756998554758678674
0,1.201479674,20250904110914759,None,-12505,9.756770133972168,0,-5,-1,0,0,-3,-2,-1,1756998554758820533
0,1.208666802,20250904110914766,None,-12505,11.184589385986328,-2,-3,-1,-2,1,1,-3,-1,1756998554766088247
0,1.208763123,20250904110914766,None,-12505,11.184589385986328,0,4,1,1,-3,-5,-1,1,1756998554766201019
0,1.216168165,20250904110914773,None,-12505,6.6631598472595215,-1,0,-1,-1,-3,1,-1,-2,1756998554773598670
0,1.216253042,20250904110914773,None,-12505,6.6631598472595215,2,0,0,1,-1,-1,-1,1,1756998554773716926
0,1.231069327,20250904110914788,None,-12508,5.4733099937438965,-1,-1,0,1,3,0,-1,0,1756998554788547039
0,1.231134653,20250904110914788,None,-12508,5.4733099937438965,-3,2,-3,1,1,-3,-3,0,1756998554788634061
0,1.254518986,20250904110914812,None,-12510,5.71127986907959,-3,-1,-1,1,-1,2,-2,1,1756998554811829328
0,1.254692555,20250904110914812,None,-12510,5.71127986907959,-3,0,-3,-1,0,-1,0,0,1756998554811969757
0,1.255182505,20250904110914812,None,-12510,5.71127986907959,2,2,-3,-1,-2,0,-3,-3,1756998554812652349
0,1.255270481,20250904110914812,None,-12510,5.71127986907959,0,-1,0,-1,-4,-3,1,1,1756998554812771320
0,1.261226416,20250904110914818,None,-12511,12.374439239501953,0,-1,0,0,-2,-1,1,1,1756998554818585872
0,1.261359453,20250904110914819,None,-12511,12.374439239501953,-3,-6,0,0,-3,0,-1,1,1756998554818691730
0,1.268964529,20250904110914826,None,-12512,7.615039825439453,-3,-1,1,0,-3,-1,-3,-3,1756998554826171636
0,1.269098759,20250904110914826,None,-12512,7.615039825439453,-2,0,-2,-3,-2,-2,-1,-1,1756998554826254367
0,1.276618958,20250904110914834,None,-12513,10.232709884643555,2,-1,0,1,2,0,0,-3,1756998554833794832
0,1.276789904,20250904110914834,None,-12513,10.232709884643555,2,-1,-2,-2,-1,-1,3,-2,1756998554833981990
0,1.29137969,20250904110914849,None,-12514,10.470680236816406,-1,-2,0,-4,-2,0,-3,0,1756998554848707437
0,1.291508198,20250904110914849,None,-12514,10.470680236816406,-1,1,-3,-1,-5,-4,-2,-2,1756998554848855972
0,1.314474344,20250904110914872,None,-12518,5.235340118408203,0,4,-1,1,-1,-2,0,1,1756998554871815919
0,1.314614534,20250904110914872,None,-12518,5.235340118408203,0,-2,-1,3,2,0,-1,-3,1756998554871961593
0,1.315181255,20250904110914872,None,-12518,5.235340118408203,0,-7,1,0,-3,0,0,-1,1756998554872650384
0,1.315255404,20250904110914872,None,-12518,5.235340118408203,-3,0,-3,1,1,-1,0,-2,1756998554872761011
0,1.321230888,20250904110914878,None,-12519,5.235340118408203,1,-1,0,1,0,2,1,-2,1756998554878675222
0,1.321383476,20250904110914879,None,-12519,5.235340118408203,-1,3,-2,-1,-3,2,-1,0,1756998554878810167
0,1.32881093,20250904110914886,None,-12519,13.564290046691895,1,0,-2,-4,0,-5,1,-1,1756998554886149406
0,1.32887888,20250904110914886,None,-12519,13.564290046691895,-1,-2,-1,0,0,-3,1,-1,1756998554886263847
0,1.336264849,20250904110914893,None,-12520,4.997369766235352,-3,-2,-1,-3,-3,2,1,1,1756998554893705129
0,1.3363378049999999,20250904110914893,None,-12520,4.997369766235352,-2,-3,0,-2,-1,0,-1,0,1756998554893834590
0,1.351250172,20250904110914908,None,-12522,7.139100074768066,-2,0,1,0,-1,-3,-1,0,1756998554908682584
0,1.3513267039999999,20250904110914908,None,-12522,7.139100074768066,-2,-1,-2,-2,-5,-2,-2,-1,1756998554908847093
0,1.36736536,20250904110914925,None,-12523,10.470680236816406,0,0,-1,1,0,-1,2,-1,1756998554924356937
0,1.36756897,20250904110914925,None,-12523,10.470680236816406,0,0,-1,-1,-1,1,-1,-1,1756998554924531221
0,1.367737055,20250904110914925,None,-12523,10.470680236816406,-2,0,0,-4,-3,0,0,0,1756998554925012826
0,1.367847681,20250904110914925,None,-12523,10.470680236816406,-3,0,-1,-3,-3,-1,0,-1,1756998554925113916
0,1.381673813,20250904110914939,None,-12525,7.615039825439453,1,-2,3,0,0,1,-1,-2,1756998554938716173
0,1.381927252,20250904110914939,None,-12525,7.615039825439453,-1,0,-3,-2,-1,-4,-1,0,1756998554938871860
0,1.388911724,20250904110914946,None,-12527,12.374439239501953,-1,1,0,3,-3,0,2,-1,1756998554946113348
0,1.389066219,20250904110914946,None,-12527,12.374439239501953,1,-2,-1,-3,-2,1,1,0,1756998554946236133
0,1.396761418,20250904110914954,None,-12528,12.374439239501953,-2,-1,-1,0,-1,-4,-2,0,1756998554953716516
0,1.3969826699999999,20250904110914954,None,-12528,12.374439239501953,-3,-3,-2,-4,0,-2,-3,-2,1756998554953857898
0,1.4116899969999999,20250904110914969,None,-12529,13.088349342346191,0,-1,-2,0,0,0,-2,0,1756998554968669414
0,1.411926746,20250904110914969,None,-12529,13.088349342346191,-3,-4,-2,1,0,-2,1,0,1756998554968789577
0,1.419137001,20250904110914976,None,-12530,4.997369766235352,-3,-1,-2,4,-3,-1,1,1,1756998554976114988
0,1.419355393,20250904110914977,None,-12530,4.997369766235352,-2,-6,-3,-5,-2,-3,-4,0,1756998554976235628
0,1.426763535,20250904110914984,None,-12531,13.088349342346191,-2,-1,-2,-1,0,0,2,0,1756998554983660459
0,1.427012682,20250904110914984,None,-12531,13.088349342346191,0,-4,-1,0,-4,-3,1,-1,1756998554983779907
0,1.441970825,20250904110914999,None,-12532,7.139100074768066,0,-1,1,-3,-2,-2,-1,-1,1756998554998778581
0,1.4422295090000001,20250904110914999,None,-12532,7.139100074768066,-1,-2,-1,-3,-3,0,0,-1,1756998554998958826
0,1.448974609,20250904110915006,None,-12533,10.708649635314941,0,0,-2,1,0,2,0,1,1756998555006129980
0,1.449176788,20250904110915006,None,-12533,10.708649635314941,-4,-3,-1,-1,-3,-1,-3,-2,1756998555006245136
0,1.4564349650000001,20250904110915014,None,-12534,9.280829429626465,-1,5,0,-3,0,-4,0,0,1756998555013700962
0,1.456614971,20250904110915014,None,-12534,9.280829429626465,-1,-2,-2,-1,-2,2,-3,0,1756998555013866662
0,1.471387863,20250904110915029,None,-12537,11.898499488830566,0,0,-3,-1,-2,-1,-2,-1,1756998555028722763
0,1.471531868,20250904110915029,None,-12537,11.898499488830566,-3,1,3,0,0,0,-1,-2,1756998555028868913
0,1.478783131,20250904110915036,None,-12537,11.898499488830566,0,-4,-1,-1,-2,-1,0,-1,1756998555036139249
0,1.478933096,20250904110915036,None,-12537,11.898499488830566,0,4,-1,-1,-1,-2,0,0,1756998555036284923
0,1.486259937,20250904110915043,None,-12538,5.4733099937438965,0,-2,-2,0,-4,-2,1,2,1756998555043683767
0,1.486377001,20250904110915044,None,-12538,5.4733099937438965,-4,-3,-1,-1,-2,-1,0,0,1756998555043800354
0,1.501288176,20250904110915058,None,-12540,5.235340118408203,2,2,-1,0,0,-3,2,1,1756998555058631420
0,1.5014023779999999,20250904110915059,None,-12540,5.235340118408203,-1,0,-3,-1,0,0,-1,-1,1756998555058756589
0,1.508781195,20250904110915066,None,-12541,13.088349342346191,0,-2,0,-3,-5,0,-3,-1,1756998555066194772
0,1.5088834759999998,20250904110915066,None,-12541,13.088349342346191,-1,0,1,2,5,0,-4,1,1756998555066336870
0,1.516272545,20250904110915073,None,-12541,13.088349342346191,-1,1,0,-2,-2,-3,-1,-1,1756998555073694467
0,1.516369581,20250904110915074,None,-12541,13.088349342346191,-2,0,-1,-2,0,-3,-2,2,1756998555073831319
0,1.531371832,20250904110915089,None,-12543,11.184589385986328,-2,-5,-1,-3,0,-1,-4,-3,1756998555088760137
0,1.531487942,20250904110915089,None,-12543,11.184589385986328,-1,0,0,1,1,-1,-2,0,1756998555088943004
0,1.538683653,20250904110915096,None,-12544,8.804889678955078,0,2,-2,-3,-6,-3,-3,1,1756998555096118688
0,1.53875804,20250904110915096,None,-12544,8.804889678955078,-3,0,2,7,6,4,2,0,1756998555096241950
0,1.5463256840000001,20250904110915103,None,-12545,8.804889678955078,-1,-2,-2,2,1,-1,-1,0,1756998555103719949
0,1.5464284419999998,20250904110915104,None,-12545,8.804889678955078,1,-1,-2,-3,-5,1,-1,-1,1756998555103857040
0,1.5618255140000001,20250904110915119,None,-12547,11.184589385986328,-4,-5,1,-3,-1,-2,-2,-1,1756998555118675947
0,1.56201911,20250904110915119,None,-12547,11.184589385986328,-1,0,0,5,2,-2,0,0,1756998555118809461
0,1.5688574320000002,20250904110915126,None,-12548,6.187219619750977,-1,0,1,-1,0,1,-2,0,1756998555126214027
0,1.5689821240000001,20250904110915126,None,-12548,6.187219619750977,-1,1,0,-1,-2,-2,0,0,1756998555126423358
0,1.576322794,20250904110915133,None,-12549,13.564290046691895,-1,-3,0,-4,-2,0,-1,-2,1756998555133659839
0,1.576536656,20250904110915134,None,-12549,13.564290046691895,-1,-2,-2,3,1,2,-4,0,1756998555133798360
0,1.591360569,20250904110915149,None,-12551,5.235340118408203,1,-2,-2,-2,-1,-1,-2,-2,1756998555148763656
0,1.591633082,20250904110915149,None,-12551,13.326319694519043,1,-1,-2,0,0,0,-1,0,1756998555148958683
0,1.5990085600000001,20250904110915156,None,-12552,13.326319694519043,-2,-1,0,1,1,-1,-3,1,1756998555156165599
0,1.599225998,20250904110915156,None,-12552,13.326319694519043,0,-4,-3,-1,0,-1,0,-1,1756998555156336069
0,1.606465578,20250904110915164,None,-12552,5.949249744415283,-1,-1,-1,-1,-4,-2,-1,1,1756998555163659572
0,1.6069445610000002,20250904110915164,None,-12553,5.949249744415283,1,-2,-1,-4,-6,-1,0,-4,1756998555163777112
0,1.6218585970000001,20250904110915179,None,-12554,8.566919326782227,1,-1,-1,4,7,1,-1,0,1756998555178745269
0,1.622199535,20250904110915179,None,-12554,8.566919326782227,-1,0,-2,1,0,0,-3,0,1756998555178905248
0,1.628834963,20250904110915186,None,-12555,9.756770133972168,0,0,-2,-2,-3,-4,-3,-1,1756998555186176776
0,1.628979921,20250904110915186,None,-12555,9.756770133972168,-2,-3,0,4,1,2,0,0,1756998555186307668
0,1.636060238,20250904110915193,None,-12557,9.756770133972168,-1,2,-1,-4,-2,-2,-3,2,1756998555193542480
0,1.636120081,20250904110915193,None,-12557,9.756770133972168,2,-3,0,-2,-3,-1,-2,1,1756998555193637371
0,1.6595425609999999,20250904110915217,None,-12559,13.564290046691895,-1,-2,-1,-1,0,1,0,2,1756998555216856002
0,1.659728289,20250904110915217,None,-12559,13.564290046691895,-2,-2,0,-1,0,-1,3,0,1756998555217051744
0,1.660182953,20250904110915217,None,-12559,13.564290046691895,-4,-2,-3,-1,0,-1,-1,-2,1756998555217635154
0,1.660304308,20250904110915217,None,-12559,13.564290046691895,3,0,0,-1,0,-1,2,-1,1756998555217810153
0,1.666253328,20250904110915224,None,-12560,5.4733099937438965,-1,-1,-2,-2,-1,-2,1,-1,1756998555223674297
0,1.6665217879999998,20250904110915224,None,-12560,5.4733099937438965,1,-1,-3,-4,-3,-2,0,-2,1756998555223799228
0,1.681384802,20250904110915239,None,-12562,13.564290046691895,2,1,-3,-2,4,-1,-2,1,1756998555238778352
0,1.681489468,20250904110915239,None,-12562,13.564290046691895,-3,-2,0,-2,1,0,-2,2,1756998555238937616
0,1.688675404,20250904110915246,None,-12562,5.949249744415283,-3,-3,2,2,1,0,0,0,1756998555246123552
0,1.688747406,20250904110915246,None,-12562,5.949249744415283,-1,-2,-2,1,-3,0,-1,3,1756998555246258497
0,1.696228027,20250904110915253,None,-12563,12.374439239501953,-5,0,0,3,0,-3,-3,-2,1756998555253648996
0,1.696354628,20250904110915253,None,-12563,12.374439239501953,0,2,-1,-3,1,2,0,-2,1756998555253779649
0,1.719539881,20250904110915277,None,-12566,10.708649635314941,1,0,2,1,-2,-3,-1,-2,1756998555276906490
0,1.7196848390000001,20250904110915277,None,-12566,10.708649635314941,0,-2,-3,-5,-3,-3,-4,0,1756998555277087926
0,1.720201254,20250904110915277,None,-12566,10.708649635314941,0,0,1,-3,0,2,2,1,1756998555277692079
0,1.720281363,20250904110915277,None,-12566,10.708649635314941,0,1,-1,1,1,-1,-1,0,1756998555277804851
0,1.726181746,20250904110915283,None,-12566,10.708649635314941,-3,-1,0,-1,0,-6,-2,-1,1756998555283648252
0,1.72624588,20250904110915283,None,-12566,10.708649635314941,-2,-1,0,2,3,-1,0,-1,1756998555283766746
0,1.74138093,20250904110915299,None,-12569,13.088349342346191,1,0,-1,1,-3,-1,-2,-3,1756998555298774003
0,1.741484642,20250904110915299,None,-12569,13.088349342346191,-1,0,-2,0,1,0,0,-2,1756998555298925399
0,1.74871707,20250904110915306,None,-12570,5.4733099937438965,2,2,-2,-3,-4,-1,3,-1,1756998555306150197
0,1.748820543,20250904110915306,None,-12570,5.4733099937438965,2,-2,-4,0,3,-2,-1,0,1756998555306257009
0,1.756244898,20250904110915313,None,-12571,13.80225944519043,0,3,0,3,3,2,0,-3,1756998555313697338
0,1.7563285830000002,20250904110915313,None,-12571,13.80225944519043,-4,-3,0,3,-2,-1,-3,-2,1756998555313813686
0,1.771283865,20250904110915328,None,-12572,5.949249744415283,0,-4,-1,-1,-1,-1,1,-1,1756998555328731536
0,1.771371603,20250904110915329,None,-12572,5.949249744415283,0,3,-3,-3,-2,-3,-1,-2,1756998555328878164
0,1.778801918,20250904110915336,None,-12573,12.850379943847656,-3,-1,0,2,-2,1,-2,-2,1756998555336205720
0,1.7788972859999999,20250904110915336,None,-12573,12.850379943847656,-1,-1,-2,-3,-3,-2,-3,0,1756998555336369991
0,1.786310673,20250904110915343,None,-12574,8.09097957611084,1,-2,-5,-1,0,-3,-1,-1,1756998555343751430
0,1.7863914969999999,20250904110915344,None,-12574,8.09097957611084,-1,-2,1,1,-5,-1,0,-1,1756998555343889713
0,1.801263809,20250904110915358,None,-12576,10.470680236816406,-3,-1,0,-1,-3,0,1,0,1756998555358686208
0,1.801378489,20250904110915359,None,-12576,10.470680236816406,-3,-2,-1,-4,-3,-3,1,1,1756998555358818292
0,1.8086926939999999,20250904110915366,None,-12576,10.232709884643555,-3,3,2,1,1,-1,-1,-1,1756998555366128206
0,1.80877614,20250904110915366,None,-12576,10.232709884643555,-2,-1,-2,-5,-1,-3,-1,-1,1756998555366285324
0,1.8162636760000002,20250904110915373,None,-12577,7.615039825439453,0,2,-2,-3,-5,-3,1,-4,1756998555373681545
0,1.8163635729999998,20250904110915374,None,-12577,7.615039825439453,2,-5,-3,1,1,-2,-1,2,1756998555373832225
0,1.831317663,20250904110915388,None,-12580,5.71127986907959,2,1,-2,-5,-4,0,-2,-1,1756998555388728380
0,1.831405401,20250904110915389,None,-12580,5.71127986907959,0,-1,-2,0,0,1,-1,-3,1756998555388881683
0,1.838688135,20250904110915396,None,-12581,5.71127986907959,4,-3,-3,-4,-2,-1,-2,-3,1756998555396137237
0,1.838781595,20250904110915396,None,-12581,5.71127986907959,-3,1,-3,0,-3,1,0,0,1756998555396264076
0,1.846252442,20250904110915403,None,-12581,13.80225944519043,-2,-5,-1,-1,-1,1,0,1,1756998555403693675
0,1.846327067,20250904110915403,None,-12581,13.80225944519043,-1,0,-1,0,-1,-3,3,2,1756998555403827667
0,1.861539126,20250904110915419,None,-12583,13.326319694519043,-2,-3,-2,-1,-2,-3,-1,-4,1756998555418915510
0,1.8616428379999999,20250904110915419,None,-12583,13.326319694519043,-2,-2,-1,-2,-4,-4,-1,2,1756998555419106245
0,1.8689968590000001,20250904110915426,None,-12584,7.615039825439453,0,-3,-4,-3,-1,-3,1,-2,1756998555426390171
0,1.869072199,20250904110915426,None,-12584,7.615039825439453,4,1,-2,-1,-2,0,-3,0,1756998555426575422
0,1.883914471,20250904110915441,None,-12585,11.184589385986328,-2,0,-1,-2,1,-3,-5,0,1756998555441298723
0,1.884052515,20250904110915441,None,-12585,11.184589385986328,-2,2,-2,1,-1,2,-2,-2,1756998555441482543
0,1.891270876,20250904110915448,None,-12586,9.280829429626465,-2,-3,-2,2,0,0,-1,0,1756998555448727369
0,1.891375303,20250904110915449,None,-12586,9.280829429626465,-2,-1,-2,-3,-6,-4,-1,-1,1756998555448846578
0,1.898797512,20250904110915456,None,-12587,8.328949928283691,-2,0,0,-3,-2,-4,0,-2,1756998555456202268
0,1.898891688,20250904110915456,None,-12587,8.328949928283691,-1,-2,-1,1,-1,-1,-2,-2,1756998555456359624
0,1.9136266709999998,20250904110915471,None,-12590,6.187219619750977,2,1,-2,0,-2,0,-1,1,1756998555471103191
0,1.9137029650000001,20250904110915471,None,-12590,6.187219619750977,-1,-2,-2,1,-3,-3,-1,0,1756998555471202850
0,1.9218921660000001,20250904110915479,None,-12591,6.187219619750977,-1,1,-1,1,1,-1,-2,-2,1756998555478855133
0,1.922093153,20250904110915479,None,-12591,6.187219619750977,-1,-3,-1,-3,2,1,-2,-3,1756998555479042530
0,1.9293768409999998,20250904110915487,None,-12591,13.80225944519043,0,0,0,-1,-2,1,-3,-1,1756998555486339330
0,1.929615975,20250904110915487,None,-12591,13.80225944519043,1,2,0,-1,-5,-1,-3,-1,1756998555486521005
0,1.944290638,20250904110915501,None,-12593,13.326319694519043,0,0,0,5,6,2,0,0,1756998555501281261
0,1.94450593,20250904110915502,None,-12593,13.326319694519043,-3,1,-1,-1,0,2,-1,-1,1756998555501458168
0,1.951782227,20250904110915509,None,-12594,6.901129722595215,-1,-5,-4,-4,-4,0,0,-1,1756998555508712053
0,1.9520041940000001,20250904110915509,None,-12594,6.901129722595215,-2,-2,-3,-1,0,-2,-3,-3,1756998555508829116
0,1.9591329100000001,20250904110915516,None,-12595,6.901129722595215,0,1,1,-1,-1,-3,-2,-4,1756998555516184806
0,1.9593834879999998,20250904110915517,None,-12595,6.901129722595215,-3,2,1,-1,-1,1,0,-6,1756998555516520977
0,1.9742605690000001,20250904110915531,None,-12596,9.518799781799316,-2,0,-2,-5,-1,-5,-2,-2,1756998555531206130
0,1.974478006,20250904110915532,None,-12596,9.518799781799316,-3,2,0,-3,0,-1,2,2,1756998555531369924
0,1.9817140100000001,20250904110915539,None,-12597,8.566919326782227,-1,1,0,-2,0,-1,0,-1,1756998555538701772
0,1.981934786,20250904110915539,None,-12597,8.566919326782227,0,0,2,0,-5,-2,-2,2,1756998555538811445
0,1.989099741,20250904110915546,None,-12599,11.184589385986328,-2,-1,1,2,2,1,-2,2,1756998555546101093
0,1.989315748,20250904110915546,None,-12599,11.184589385986328,-1,-3,-3,0,3,0,-1,-2,1756998555546215057
0,2.004137039,20250904110915561,None,-12601,6.6631598472595215,-2,-3,1,-1,0,1,-1,-4,1756998555561298847
0,2.004317284,20250904110915561,None,-12601,6.6631598472595215,-3,-5,0,0,1,-4,-6,-3,1756998555561643838
0,2.011309862,20250904110915568,None,-12601,13.564290046691895,0,2,-1,1,-1,0,-2,-2,1756998555568727016
0,2.011407137,20250904110915569,None,-12601,13.564290046691895,3,0,1,-4,-5,-3,1,-4,1756998555568873167
0,2.026215792,20250904110915583,None,-12603,13.564290046691895,2,-3,-2,3,-1,1,0,0,1756998555583644151
0,2.026298285,20250904110915583,None,-12603,13.564290046691895,-3,-3,-4,0,0,-1,-1,-2,1756998555583753585
0,2.033746243,20250904110915591,None,-12604,13.564290046691895,1,-2,-1,0,2,1,0,3,1756998555591142177
0,2.034246445,20250904110915591,None,-12604,13.564290046691895,-5,-1,-3,-3,-4,0,0,-2,1756998555591390609
0,2.042307615,20250904110915599,None,-12605,6.187219619750977,2,-3,-1,-3,-1,-4,-1,2,1756998555599130392
0,2.042581558,20250904110915600,None,-12605,6.187219619750977,-1,-1,-2,-5,-1,1,-4,-1,1756998555599371671
0,2.049444437,20250904110915607,None,-12605,11.42255973815918,-1,0,-2,-1,-3,-4,-2,-1,1756998555606508731
0,2.049675465,20250904110915607,None,-12605,11.42255973815918,2,1,-5,1,0,4,-1,-2,1756998555606739997
0,2.064627409,20250904110915622,None,-12607,9.280829429626465,0,-1,-3,-1,-1,0,-2,-1,1756998555621557950
0,2.064867973,20250904110915622,None,-12607,9.280829429626465,0,1,2,-1,1,2,0,-2,1756998555621737718
0,2.079821587,20250904110915637,None,-12610,7.139100074768066,-1,-2,2,1,-1,-1,2,0,1756998555636845827
0,2.080054283,20250904110915637,None,-12610,7.139100074768066,-1,-1,-3,-1,1,2,-1,1,1756998555636994838
0,2.080445528,20250904110915638,None,-12610,7.139100074768066,-2,0,-1,2,1,-1,-1,1,1756998555637588024
0,2.080683708,20250904110915638,None,-12610,7.139100074768066,-1,1,0,1,-1,-3,-1,-1,1756998555637715816
0,2.094168663,20250904110915651,None,-12611,13.564290046691895,-1,-4,-1,-1,1,-1,-1,-5,1756998555651188135
0,2.094382286,20250904110915652,None,-12611,13.564290046691895,1,-3,-2,-6,0,2,0,-2,1756998555651332855
0,2.101576328,20250904110915659,None,-12612,5.4733099937438965,0,3,0,-1,-6,-6,-3,1,1756998555658758163
0,2.101749182,20250904110915659,None,-12612,5.4733099937438965,-1,0,2,-2,0,0,0,0,1756998555658912420
0,2.108974695,20250904110915666,None,-12613,13.80225944519043,0,-2,-1,0,-4,-2,-4,-2,1756998555666233301
0,2.109104157,20250904110915666,None,-12613,13.80225944519043,-1,-3,1,0,-3,-5,1,-1,1756998555666360378
0,2.124200583,20250904110915681,None,-12614,6.187219619750977,-2,0,2,1,1,0,1,-3,1756998555681199550
0,2.124702931,20250904110915682,None,-12615,6.187219619750977,-1,-3,-4,0,1,-1,0,-1,1756998555681367397
0,2.131722927,20250904110915689,None,-12615,11.660530090332031,-2,1,-1,2,0,2,-4,-2,1756998555688697814
0,2.131937742,20250904110915689,None,-12615,11.660530090332031,-1,1,2,0,0,2,1,-2,1756998555688809156
0,2.139135838,20250904110915696,None,-12616,8.566919326782227,-3,-2,-1,1,-5,-2,-2,-3,1756998555696140527
0,2.139379263,20250904110915697,None,-12616,8.566919326782227,1,1,-3,-3,-1,1,-1,0,1756998555696250200
0,2.154011726,20250904110915711,None,-12619,11.42255973815918,2,2,-3,-3,-4,-4,-2,1,1756998555711160659
0,2.154219151,20250904110915711,None,-12619,11.42255973815918,-3,-6,-1,0,2,0,-2,-2,1756998555711258649
0,2.161778689,20250904110915719,None,-12620,11.42255973815918,0,-2,-3,2,0,-1,-3,-1,1756998555718678236
0,2.161942721,20250904110915719,None,-12620,11.42255973815918,-2,-1,-3,1,-1,-1,0,0,1756998555718790292
0,2.169286966,20250904110915726,None,-12620,7.139100074768066,3,0,-1,-2,0,-2,-2,0,1756998555726196765
0,2.169528008,20250904110915727,None,-12620,7.139100074768066,-1,0,-3,0,-1,0,-2,0,1756998555726341485
0,2.18379426,20250904110915741,None,-12622,5.71127986907959,-1,-2,-2,-1,-1,-1,0,0,1756998555741076469
0,2.183874846,20250904110915741,None,-12622,5.71127986907959,1,0,1,-5,-1,-3,-1,-1,1756998555741194248
0,2.191298246,20250904110915748,None,-12623,14.040229797363281,-3,-2,-1,-2,0,0,-1,-3,1756998555748718023
0,2.191412926,20250904110915749,None,-12623,14.040229797363281,1,2,-2,3,-1,-1,-1,0,1756998555748865842
0,2.198823691,20250904110915756,None,-12624,14.040229797363281,-1,-1,-3,0,-2,1,0,-1,1756998555756167173
0,2.198949576,20250904110915756,None,-12624,14.040229797363281,-1,-1,-1,-2,-2,-1,-2,0,1756998555756259441
0,2.213816404,20250904110915771,None,-12625,12.612409591674805,-1,-2,-3,-2,1,-2,-2,0,1756998555771191120
0,2.213992596,20250904110915771,None,-12625,12.612409591674805,-3,-2,-1,-3,-1,2,1,-3,1756998555771361589
0,2.22128439,20250904110915778,None,-12626,7.8530097007751465,3,-2,0,3,3,0,-1,1,1756998555778727769
0,2.221388817,20250904110915779,None,-12626,7.8530097007751465,-4,0,-1,1,-4,0,0,1,1756998555778841972
0,2.228750944,20250904110915786,None,-12627,10.470680236816406,-1,-1,-1,0,-2,-3,-4,-2,1756998555786181688
0,2.228866577,20250904110915786,None,-12627,10.470680236816406,-1,3,2,1,6,4,-2,-1,1756998555786284208
0,2.24388814,20250904110915801,None,-12628,10.708649635314941,-3,-2,-2,0,-4,-3,-3,-1,1756998555801249742
0,2.244027138,20250904110915801,None,-12628,10.708649635314941,-3,-3,-4,0,1,3,-1,-1,1756998555801421403
0,2.25127244,20250904110915808,None,-12629,7.37706995010376,-1,5,0,-5,-5,-3,-3,1,1756998555808723211
0,2.251356363,20250904110915808,None,-12629,7.37706995010376,-1,-1,1,1,3,4,0,-1,1756998555808874845
0,2.258732319,20250904110915816,None,-12631,13.088349342346191,-1,1,-3,-1,1,1,-2,0,1756998555816136360
0,2.258883,20250904110915816,None,-12631,13.088349342346191,-2,-6,-2,-4,-3,-1,-1,-3,1756998555816260814
0,2.273796558,20250904110915831,None,-12633,13.80225944519043,0,-4,0,2,-2,0,-2,-3,1756998555831201076
0,2.273896933,20250904110915831,None,-12633,13.80225944519043,0,1,0,-6,-3,-7,-3,0,1756998555831379413
0,2.281587601,20250904110915839,None,-12633,13.80225944519043,-1,2,1,0,7,2,1,1,1756998555838902950
0,2.281765461,20250904110915839,None,-12633,13.80225944519043,-4,-3,-3,2,-2,-2,-1,-2,1756998555839076519
0,2.304802656,20250904110915862,None,-12636,7.8530097007751465,-1,1,-2,0,3,-2,0,-1,1756998555862115621
0,2.304936648,20250904110915862,None,-12636,7.8530097007751465,2,4,0,0,-1,-5,-3,1,1756998555862289428
0,2.305495978,20250904110915863,None,-12636,7.8530097007751465,-1,1,-1,-4,0,0,0,-2,1756998555862801313
0,2.3057544229999998,20250904110915863,None,-12636,7.8530097007751465,-1,-3,-4,0,-4,-3,-3,0,1756998555862945556
0,2.311615467,20250904110915869,None,-12637,10.946619987487793,0,1,-4,1,0,0,-1,-1,1756998555868950605
0,2.311778307,20250904110915869,None,-12637,10.946619987487793,-1,0,-1,-1,2,0,0,0,1756998555869129896
0,2.318886042,20250904110915876,None,-12638,10.946619987487793,-2,1,1,0,-2,0,0,1,1756998555876283884
0,2.319076061,20250904110915876,None,-12638,10.946619987487793,-2,-1,-1,-4,-3,0,0,-3,1756998555876478910
0,2.342078447,20250904110915899,None,-12641,12.612409591674805,1,1,1,-2,0,-2,0,0,1756998555899491548
0,2.342212916,20250904110915899,None,-12641,12.612409591674805,-2,-1,1,-5,1,2,-1,-1,1756998555899652004
0,2.342759133,20250904110915900,None,-12641,12.612409591674805,0,-3,0,-1,-1,4,2,-3,1756998555900241374
0,2.34284091,20250904110915900,None,-12641,12.612409591674805,-2,-1,1,2,0,-2,2,-1,1756998555900353193
0,2.357079268,20250904110915914,None,-12643,5.949249744415283,-3,0,1,0,2,-2,-2,0,1756998555914379358
0,2.357452631,20250904110915915,None,-12643,14.040229797363281,1,0,-1,1,0,-2,-2,-1,1756998555914875984
0,2.364372492,20250904110915922,None,-12643,14.040229797363281,-1,-3,0,1,-1,3,3,1,1756998555921688318
0,2.364538431,20250904110915922,None,-12643,14.040229797363281,1,-4,0,-2,-4,-4,-1,-4,1756998555921906232
0,2.371555567,20250904110915929,None,-12644,5.71127986907959,-3,-1,0,-2,-3,-5,-2,-4,1756998555928900718
0,2.371693373,20250904110915929,None,-12644,5.71127986907959,2,4,1,5,1,0,4,-1,1756998555929057598
0,2.37932086,20250904110915936,None,-12645,13.564290046691895,-1,-3,-2,2,-3,-3,-1,-1,1756998555936591625
0,2.379480362,20250904110915937,None,-12645,13.564290046691895,-1,0,-3,-4,1,-2,-1,-4,1756998555936804294
0,2.394114494,20250904110915951,None,-12647,11.660530090332031,-1,-1,-3,-1,-3,1,0,-2,1756998555951490163
0,2.394250393,20250904110915951,None,-12647,11.660530090332031,-2,-4,-3,1,-4,-2,0,0,1756998555951694488
0,2.40174675,20250904110915959,None,-12648,11.660530090332031,-1,-1,-3,0,1,3,-1,0,1756998555959097862
0,2.4019668100000002,20250904110915959,None,-12648,11.660530090332031,-1,0,-1,-2,-3,-4,-3,-1,1756998555959415912
0,2.416390658,20250904110915974,None,-12649,8.328949928283691,1,-1,-1,-2,3,0,-2,-2,1756998555973726511
0,2.416544199,20250904110915974,None,-12649,8.328949928283691,0,0,0,0,0,-4,-2,1,1756998555973864793
0,2.423830748,20250904110915981,None,-12651,12.374439239501953,0,-3,0,-2,-3,0,-1,0,1756998555981258392
0,2.423964739,20250904110915981,None,-12651,12.374439239501953,2,-4,-1,-1,2,2,0,-1,1756998555981385231
0,2.431351662,20250904110915989,None,-12652,5.949249744415283,-3,0,1,0,-2,1,3,-4,1756998555988721609
0,2.431503296,20250904110915989,None,-12652,5.949249744415283,0,1,1,-1,-1,-1,-2,-2,1756998555988843441
0,2.438789845,20250904110915996,None,-12652,5.949249744415283,1,-1,1,0,2,-2,1,1,1756998555996185302
0,2.439001322,20250904110915996,None,-12653,5.949249744415283,0,0,-1,-1,0,4,0,-3,1756998555996322631
0,2.453839302,20250904110916011,None,-12654,5.235340118408203,0,-2,1,-1,-3,-3,-1,-2,1756998556011153221
0,2.4539361,20250904110916011,None,-12654,5.235340118408203,-2,-1,-3,0,1,-1,2,0,1756998556011258602
0,2.461248398,20250904110916018,None,-12655,13.564290046691895,-3,-2,-3,0,0,-1,-2,-2,1756998556018718719
0,2.461346865,20250904110916018,None,-12655,13.564290046691895,-1,-4,-1,-3,-5,-1,1,-3,1756998556018839836
0,2.476695299,20250904110916034,None,-12657,11.42255973815918,-4,-1,0,-2,0,-2,-3,-2,1756998556034124374
0,2.476815939,20250904110916034,None,-12657,11.42255973815918,-2,-5,-2,-2,3,2,4,1,1756998556034264802
0,2.483686447,20250904110916041,None,-12657,11.42255973815918,1,-1,-4,-3,-4,-1,-1,-2,1756998556041138648
0,2.483785153,20250904110916041,None,-12657,11.42255973815918,-2,-3,-2,-1,2,1,1,-1,1756998556041260242
0,2.491209269,20250904110916048,None,-12658,8.566919326782227,-1,-1,-5,-1,-1,2,-3,-2,1756998556048684597
0,2.491285324,20250904110916048,None,-12658,8.566919326782227,2,2,-2,-1,-1,1,1,-1,1756998556048789262
0,2.4988124369999998,20250904110916056,None,-12659,9.04286003112793,1,-4,-2,0,1,-1,-1,-1,1756998556056157350
0,2.498910427,20250904110916056,None,-12659,9.04286003112793,1,-2,1,1,-1,3,1,2,1756998556056257963
0,2.513745546,20250904110916071,None,-12662,6.6631598472595215,1,-2,-2,-1,-2,-1,-1,2,1756998556071146249
0,2.51386857,20250904110916071,None,-12662,6.6631598472595215,-1,-1,0,1,-1,-2,0,0,1756998556071277379
0,2.521219254,20250904110916078,None,-12663,6.6631598472595215,-3,-3,1,-4,-4,-3,-5,-3,1756998556078662157
0,2.521325588,20250904110916078,None,-12663,6.6631598472595215,-4,-4,-1,0,2,-1,-1,-2,1756998556078778982
0,2.536315918,20250904110916093,None,-12664,5.71127986907959,1,-1,-1,0,0,-3,1,0,1756998556093771219
0,2.53642869,20250904110916094,None,-12664,5.71127986907959,1,-4,-1,-3,-1,-3,-3,-1,1756998556093943119
0,2.5439121719999997,20250904110916101,None,-12665,13.564290046691895,0,0,-1,-3,-1,-1,-2,-4,1756998556101166486
0,2.54408741,20250904110916101,None,-12665,13.564290046691895,1,0,-2,-1,1,0,-1,-1,1756998556101256370
0,2.551403999,20250904110916109,None,-12666,5.949249744415283,0,-4,-1,2,1,1,-2,-3,1756998556108811378
0,2.5514900689999997,20250904110916109,None,-12666,5.949249744415283,-3,-5,1,-3,-4,-4,0,2,1756998556108979463
0,2.558804512,20250904110916116,None,-12667,11.898499488830566,-4,2,0,-4,1,5,1,-1,1756998556116198062
0,2.5589435099999998,20250904110916116,None,-12667,11.898499488830566,1,0,-1,2,-3,0,-2,2,1756998556116361618
0,2.573822737,20250904110916131,None,-12668,8.804889678955078,2,5,1,1,-1,-4,-3,-2,1756998556131170511
0,2.573958397,20250904110916131,None,-12668,8.804889678955078,1,1,-1,-3,-3,0,0,0,1756998556131361722
0,2.581330776,20250904110916138,None,-12669,10.232709884643555,-3,-5,-3,-3,-3,-1,0,0,1756998556138758659
0,2.581435681,20250904110916139,None,-12669,10.232709884643555,-3,-3,0,0,3,-3,2,-2,1756998556138905286
0,2.596324682,20250904110916153,None,-12672,6.901129722595215,1,1,0,-3,-4,0,-4,-3,1756998556153713703
0,2.596453667,20250904110916154,None,-12672,6.901129722595215,0,3,-3,-1,0,-2,-1,0,1756998556153838872
0,2.603780508,20250904110916161,None,-12672,6.901129722595215,-2,0,1,0,2,-1,3,0,1756998556161151409
0,2.603992462,20250904110916161,None,-12673,6.901129722595215,-3,1,-1,1,0,-2,-1,0,1756998556161264896
0,2.611260891,20250904110916168,None,-12673,13.564290046691895,0,-2,-2,-1,-4,0,-2,-3,1756998556168738365
0,2.611381531,20250904110916169,None,-12673,13.564290046691895,2,-1,1,2,-3,-2,1,1,1756998556168858051
0,2.618734598,20250904110916176,None,-12674,5.4733099937438965,-1,0,0,-1,-3,-1,0,2,1756998556176122188
0,2.618853569,20250904110916176,None,-12674,5.4733099937438965,-3,-1,-4,2,-2,-3,-1,-3,1756998556176243543
0,2.6338789460000003,20250904110916191,None,-12676,5.949249744415283,-2,0,0,-2,-1,1,-2,0,1756998556191184997
0,2.634042502,20250904110916191,None,-12676,5.949249744415283,-1,-3,-1,0,0,-1,-1,0,1756998556191372632
0,2.641359091,20250904110916199,None,-12677,5.949249744415283,-3,-2,2,-1,3,0,-1,-1,1756998556198762416
0,2.641539335,20250904110916199,None,-12677,5.949249744415283,3,-3,0,0,-2,-4,-2,0,1756998556198942184
0,2.656275511,20250904110916213,None,-12678,8.328949928283691,1,-1,2,0,4,2,-2,-3,1756998556213702440
0,2.656399727,20250904110916214,None,-12678,8.328949928283691,-2,0,0,-2,1,-1,-1,-1,1756998556213831424
0,2.663781166,20250904110916221,None,-12679,9.994739532470703,0,-1,-1,0,0,-4,0,-3,1756998556221131563
0,2.663917542,20250904110916221,None,-12679,9.994739532470703,-1,1,-1,-1,-2,-1,-1,-4,1756998556221259355
0,2.6712419990000003,20250904110916228,None,-12680,9.994739532470703,-1,0,-2,-2,-3,-2,0,0,1756998556228702306
0,2.671330452,20250904110916228,None,-12680,9.994739532470703,-4,-1,-1,1,2,4,0,-1,1756998556228820323
0,2.678847551,20250904110916236,None,-12681,9.994739532470703,-1,-1,-1,-1,-1,-2,-3,0,1756998556236208677
0,2.678977013,20250904110916236,None,-12681,9.994739532470703,-2,0,0,-3,0,0,-2,-2,1756998556236356496
0,2.693777084,20250904110916251,None,-12683,13.564290046691895,-1,1,-3,3,-1,-3,-2,0,1756998556251180887
0,2.693904877,20250904110916251,None,-12683,13.564290046691895,-2,-3,1,1,1,2,-3,2,1756998556251323938
0,2.7013289929999997,20250904110916258,None,-12684,5.71127986907959,-2,-1,0,-1,-4,-2,1,0,1756998556258755445
0,2.701416969,20250904110916259,None,-12684,5.71127986907959,1,-4,1,2,2,-1,1,0,1756998556258874893
0,2.716374874,20250904110916274,None,-12686,6.187219619750977,0,-1,-2,-3,2,3,-3,0,1756998556273742914
0,2.716521978,20250904110916274,None,-12686,6.187219619750977,0,0,-1,-1,-1,-1,1,0,1756998556273875713
0,2.723766327,20250904110916281,None,-12686,6.187219619750977,-3,-1,-1,-4,-4,-2,-1,-2,1756998556281171798
0,2.7238681319999998,20250904110916281,None,-12686,6.187219619750977,1,-1,-2,1,0,0,-4,-3,1756998556281331539
0,2.731262684,20250904110916288,None,-12687,13.088349342346191,0,0,0,-4,-3,-3,-2,1,1756998556288678884
0,2.731342077,20250904110916288,None,-12687,13.088349342346191,0,-1,-1,-1,-2,-2,-3,-3,1756998556288812398
0,2.738774061,20250904110916296,None,-12688,8.09097957611084,1,-1,2,2,-4,2,0,0,1756998556296188831
0,2.738884449,20250904110916296,None,-12688,8.09097957611084,-1,-3,0,0,1,1,-1,0,1756998556296341657
0,2.753823042,20250904110916311,None,-12690,10.470680236816406,-1,1,-1,-3,-2,1,-1,1,1756998556311179876
0,2.753948927,20250904110916311,None,-12690,10.470680236816406,-1,-2,0,-1,0,-2,0,-1,1756998556311359167
0,2.761192799,20250904110916318,None,-12690,10.470680236816406,-3,0,1,1,-4,-2,1,-1,1756998556318590164
0,2.761304855,20250904110916318,None,-12690,10.470680236816406,-1,3,-3,-4,-3,3,-2,0,1756998556318707942
0,2.776413441,20250904110916334,None,-12693,13.088349342346191,-1,2,-2,-1,-2,-1,0,-2,1756998556333767414
0,2.776613474,20250904110916334,None,-12693,13.088349342346191,-1,2,-1,1,-1,-1,0,-2,1756998556333935260
0,2.7839946749999998,20250904110916341,None,-12694,5.71127986907959,-3,-4,0,-1,-2,-2,-2,-3,1756998556341193199
0,2.784265995,20250904110916341,None,-12694,5.71127986907959,-2,-2,-1,-3,-1,-2,2,-1,1756998556341431379
0,2.791414738,20250904110916349,None,-12695,13.80225944519043,-1,2,-5,-2,2,1,-1,0,1756998556348731040
0,2.791589975,20250904110916349,None,-12695,13.80225944519043,-2,-3,-3,-5,-1,1,1,1,1756998556348883152
0,2.806455374,20250904110916364,None,-12696,5.949249744415283,2,1,-1,-3,-2,-3,-1,-2,1756998556363793849
0,2.8066329960000003,20250904110916364,None,-12696,5.949249744415283,0,-4,0,0,0,0,0,-1,1756998556363964080
0,2.813733339,20250904110916371,None,-12697,13.326319694519043,-1,-1,1,0,-2,-3,0,-2,1756998556371129512
0,2.813934803,20250904110916371,None,-12697,13.326319694519043,-2,-2,-1,2,-1,0,1,-1,1756998556371275663
0,2.821392059,20250904110916379,None,-12698,7.615039825439453,0,-2,-3,-3,-3,-2,-3,0,1756998556378691911
0,2.821591616,20250904110916379,None,-12698,7.615039825439453,-2,1,2,2,6,0,0,-1,1756998556378810644
0,2.836342573,20250904110916393,None,-12700,11.184589385986328,1,-2,-2,-3,-5,0,0,-2,1756998556393730401
0,2.836513519,20250904110916394,None,-12700,9.994739532470703,-1,-1,0,0,-3,0,-4,-2,1756998556393863916
0,2.843724489,20250904110916401,None,-12700,9.994739532470703,-3,1,-1,-1,-4,-1,1,-2,1756998556401143312
0,2.843822479,20250904110916401,None,-12700,9.994739532470703,-2,1,0,-1,0,-1,-3,0,1756998556401254892
0,2.8512523180000002,20250904110916408,None,-12701,8.566919326782227,0,-4,1,-1,-3,0,-1,-3,1756998556408715963
0,2.851329804,20250904110916408,None,-12701,8.566919326782227,-1,-4,-2,1,2,3,1,-1,1756998556408843278
0,2.866338492,20250904110916423,None,-12704,6.187219619750977,-1,3,-3,0,-1,-2,0,-2,1756998556423753738
0,2.866448641,20250904110916424,None,-12704,6.187219619750977,2,1,3,1,0,1,-3,-1,1756998556423904657
0,2.873752356,20250904110916431,None,-12705,14.040229797363281,0,-1,-3,-2,0,-3,2,1,1756998556431176900
0,2.873834133,20250904110916431,None,-12705,14.040229797363281,0,-3,1,-1,-2,-1,0,-1,1756998556431329965
0,2.8811576370000003,20250904110916438,None,-12706,5.71127986907959,-1,-1,-2,-3,-1,-2,-5,-2,1756998556438623666
0,2.881241799,20250904110916438,None,-12706,5.71127986907959,1,-1,0,-3,-2,-1,0,1,1756998556438721179
0,2.8963408470000003,20250904110916453,None,-12707,13.564290046691895,2,0,2,0,-1,1,3,1,1756998556453743457
0,2.8964235780000003,20250904110916454,None,-12707,13.564290046691895,-1,-2,-5,-2,-2,-3,0,-3,1756998556453892707
0,2.903764486,20250904110916461,None,-12708,6.425189971923828,0,-3,-3,-1,1,-3,-2,0,1756998556461190223
0,2.90385747,20250904110916461,None,-12708,6.425189971923828,1,-1,-1,0,0,-1,0,1,1756998556461342811
0,2.911363363,20250904110916469,None,-12709,11.42255973815918,0,5,-2,-1,1,1,0,-1,1756998556468744039
0,2.911447048,20250904110916469,None,-12709,11.42255973815918,0,-2,-2,-2,0,1,0,0,1756998556468884468
0,2.926341295,20250904110916483,None,-12710,9.518799781799316,-3,-1,2,-1,-5,-2,-3,0,1756998556483742475
0,2.926423788,20250904110916484,None,-12710,9.518799781799316,2,1,-1,-1,0,-2,0,0,1756998556483878374
0,2.933888674,20250904110916491,None,-12711,9.04286003112793,-2,-2,-1,-3,-4,-1,-2,-3,1756998556491212368
0,2.933992863,20250904110916491,None,-12711,9.04286003112793,-1,-1,-2,1,-1,-3,-1,-2,1756998556491486549
0,2.941371203,20250904110916499,None,-12713,12.136469841003418,-4,-3,3,2,4,0,-2,-3,1756998556498791456
0,2.941453934,20250904110916499,None,-12713,12.136469841003418,0,-1,2,2,-1,0,0,-1,1756998556498933076
0,2.956448794,20250904110916514,None,-12715,13.80225944519043,-1,0,-1,-4,-1,1,1,-2,1756998556513791084
0,2.956623316,20250904110916514,None,-12715,13.80225944519043,-1,1,1,-1,-3,-2,-2,-1,1756998556513947248
0,2.963747025,20250904110916521,None,-12715,13.80225944519043,1,1,1,0,-2,3,-1,1,1756998556521183967
0,2.963904619,20250904110916521,None,-12715,13.80225944519043,0,4,-1,0,-1,-1,-3,1,1756998556521388053
0,2.971693039,20250904110916529,None,-12716,5.949249744415283,-3,-1,0,-2,0,-3,-2,-1,1756998556529072046
0,2.971807718,20250904110916529,None,-12716,5.949249744415283,-2,0,-2,-1,3,-4,-2,-2,1756998556529288291
0,2.9873163700000003,20250904110916544,None,-12718,6.6631598472595215,-1,2,-2,1,-3,-3,0,0,1756998556544023036
0,2.9875173569999998,20250904110916545,None,-12718,6.6631598472595215,-1,-4,-2,0,4,4,-1,2,1756998556544206142
0,2.993867397,20250904110916551,None,-12719,11.660530090332031,-3,-1,0,-2,-4,-3,-2,-3,1756998556551077842
0,2.993984461,20250904110916551,None,-12719,11.660530090332031,0,1,-3,-4,-1,-2,-1,1,1756998556551202058
0,3.001400232,20250904110916559,None,-12720,11.660530090332031,4,1,-2,-3,-1,-3,1,-3,1756998556558755874
0,3.001656056,20250904110916559,None,-12720,11.660530090332031,1,-1,-1,0,0,4,-3,-4,1756998556558980941
0,3.016419411,20250904110916574,None,-12721,9.518799781799316,0,-1,-1,-2,3,-1,-1,1,1756998556573770523
0,3.016562462,20250904110916574,None,-12721,9.518799781799316,-4,-6,-2,1,-2,0,2,1,1756998556573903799
0,3.023888588,20250904110916581,None,-12723,11.660530090332031,-1,-2,0,-3,-3,-3,-3,-2,1756998556581200122
0,3.024050951,20250904110916581,None,-12723,11.660530090332031,2,3,-1,0,1,-1,1,-3,1756998556581336259
0,3.031660795,20250904110916589,None,-12724,6.6631598472595215,-5,-3,-3,1,-2,-2,0,0,1756998556588712692
0,3.031882286,20250904110916589,None,-12724,6.6631598472595215,0,-2,0,2,1,0,-2,-3,1756998556588888883
0,3.046350002,20250904110916604,None,-12725,13.564290046691895,1,-2,-1,-2,-5,-5,-1,-1,1756998556603745460
0,3.04650712,20250904110916604,None,-12725,13.564290046691895,1,0,-1,1,5,1,-3,-4,1756998556603868961
0,3.053718805,20250904110916611,None,-12726,5.71127986907959,1,-4,1,-1,-4,-2,0,0,1756998556611131668
0,3.053826571,20250904110916611,None,-12726,5.71127986907959,1,3,-2,1,0,0,1,-1,1756998556611249446
0,3.061242581,20250904110916618,None,-12727,13.80225944519043,0,0,0,-3,-4,-2,0,-4,1756998556618656396
0,3.061359882,20250904110916619,None,-12727,13.80225944519043,1,-1,-3,0,3,2,-1,-2,1756998556618777751
0,3.076491356,20250904110916634,None,-12729,12.136469841003418,-3,-3,-1,-3,-1,-1,-2,0,1756998556633842945
0,3.076658487,20250904110916634,None,-12729,12.136469841003418,-1,-3,-1,-6,-2,0,0,-4,1756998556634061813
0,3.08382678,20250904110916641,None,-12729,12.136469841003418,-2,2,-2,0,-3,-1,-1,-1,1756998556641168355
0,3.083921909,20250904110916641,None,-12729,12.136469841003418,-2,0,-1,-1,0,0,3,2,1756998556641266107
0,3.091298103,20250904110916648,None,-12730,8.328949928283691,-1,0,-1,-3,-2,-2,-1,-3,1756998556648708820
0,3.091418505,20250904110916649,None,-12730,8.328949928283691,-1,-2,0,-1,-3,-2,1,0,1756998556648815393
0,3.106307984,20250904110916663,None,-12733,10.708649635314941,-2,2,0,0,-1,-4,-1,-1,1756998556663716793
0,3.106798887,20250904110916664,None,-12733,10.708649635314941,-2,-4,-2,-3,-2,-3,0,-1,1756998556663883447
0,3.113802672,20250904110916671,None,-12733,7.139100074768066,-2,-2,2,5,5,3,-1,-1,1756998556671044588
0,3.113907814,20250904110916671,None,-12733,7.139100074768066,1,1,-1,3,3,-3,-3,0,1756998556671132564
0,3.121401072,20250904110916679,None,-12735,7.139100074768066,0,0,-3,-2,1,1,-1,0,1756998556678630828
0,3.121531963,20250904110916679,None,-12735,7.139100074768066,-3,-3,-3,3,-1,0,-1,-1,1756998556678745031
0,3.136834383,20250904110916694,None,-12736,5.71127986907959,-3,0,0,-2,-5,-3,-2,-1,1756998556693765878
0,3.137083531,20250904110916694,None,-12736,5.71127986907959,-1,-3,-6,-5,-7,-6,-3,-4,1756998556693899154
0,3.144220829,20250904110916701,None,-12737,13.80225944519043,-1,3,-1,1,0,1,-2,2,1756998556701184511
0,3.144438505,20250904110916702,None,-12737,13.80225944519043,1,-1,2,-1,1,0,0,1,1756998556701330184
0,3.151763201,20250904110916709,None,-12738,5.949249744415283,1,-3,1,-2,-3,-1,-3,-1,1756998556708729028
0,3.151981831,20250904110916709,None,-12738,5.949249744415283,-4,-3,-2,2,9,2,4,0,1756998556708842992
0,3.166825533,20250904110916724,None,-12739,12.850379943847656,-1,-2,2,-1,-1,1,-1,1,1756998556723735809
0,3.167082071,20250904110916724,None,-12739,12.850379943847656,-1,0,0,0,-3,-4,0,-2,1756998556723867893
0,3.174182415,20250904110916731,None,-12740,7.8530097007751465,-1,2,1,0,0,-2,-3,0,1756998556731147289
0,3.174403429,20250904110916732,None,-12740,7.8530097007751465,0,-1,1,-2,-3,-2,0,-1,1756998556731261014
0,3.189032078,20250904110916746,None,-12743,10.470680236816406,-2,-1,0,0,1,1,-3,-5,1756998556746125459
0,3.18921113,20250904110916746,None,-12743,10.470680236816406,-1,1,-1,-2,0,-1,-1,-1,1756998556746182918
0,3.196746349,20250904110916754,None,-12743,7.615039825439453,-4,-3,-3,-2,-5,-4,-1,-2,1756998556753699779
0,3.196967363,20250904110916754,None,-12743,7.615039825439453,1,3,-1,-1,1,-3,-2,0,1756998556753817796
0,3.204159737,20250904110916761,None,-12745,7.615039825439453,0,-2,-1,-3,2,-2,0,0,1756998556761157035
0,3.204378128,20250904110916762,None,-12745,7.615039825439453,-1,1,1,0,3,3,-1,1,1756998556761254072
0,3.21922183,20250904110916776,None,-12746,5.4733099937438965,2,-2,-1,-4,-1,1,-2,0,1756998556776164054
0,3.219498158,20250904110916777,None,-12746,5.4733099937438965,-1,0,-5,-1,-3,-2,-1,-1,1756998556776260375
0,3.226717949,20250904110916784,None,-12747,13.80225944519043,1,3,1,0,1,-3,1,1,1756998556783683061
0,3.226922989,20250904110916784,None,-12747,13.80225944519043,-3,0,0,-2,-2,-3,-1,0,1756998556783780336
0,3.234135151,20250904110916791,None,-12748,5.71127986907959,-1,-2,0,2,-4,0,0,0,1756998556791136980
0,3.234388828,20250904110916792,None,-12748,5.71127986907959,-2,-1,-4,-1,4,0,1,0,1756998556791250467
0,3.241936207,20250904110916799,None,-12749,5.71127986907959,1,-2,-5,-2,-4,-3,0,-2,1756998556798727273
0,3.242185354,20250904110916799,None,-12749,5.71127986907959,-1,-1,-1,1,1,0,0,-2,1756998556798830509
0,3.256860495,20250904110916814,None,-12750,7.615039825439453,0,-4,2,1,-3,-4,0,0,1756998556813797235
0,3.257076264,20250904110916814,None,-12750,7.615039825439453,0,3,2,-4,-1,-2,0,-2,1756998556813959598
0,3.264842749,20250904110916822,None,-12751,10.708649635314941,0,-3,0,1,1,2,-2,-3,1756998556821658849
0,3.265058756,20250904110916822,None,-12751,10.708649635314941,2,-1,-1,-1,-4,0,1,0,1756998556821884393
0,3.279341459,20250904110916836,None,-12753,8.566919326782227,-3,0,-3,0,-3,-5,-4,0,1756998556836468458
0,3.279504538,20250904110916837,None,-12753,8.566919326782227,-1,-1,-2,-1,2,1,0,-1,1756998556836690664
0,3.286913157,20250904110916844,None,-12755,8.566919326782227,2,1,-3,0,0,-2,-2,0,1756998556843985080
0,3.287114143,20250904110916844,None,-12755,8.566919326782227,-1,0,-2,-1,-1,0,1,-1,1756998556844260931
0,3.294293165,20250904110916851,None,-12755,12.612409591674805,-2,0,-2,-2,-7,-4,-2,0,1756998556851241827
0,3.294510603,20250904110916852,None,-12755,12.612409591674805,-3,-2,2,-2,3,0,-2,1,1756998556851412534
0,3.301748276,20250904110916859,None,-12756,5.949249744415283,0,-1,0,-1,-3,-1,-3,-3,1756998556858724832
0,3.301966906,20250904110916859,None,-12756,5.949249744415283,-2,-3,-3,-4,-1,-4,-1,-2,1756998556858794689
0,3.316640616,20250904110916874,None,-12758,5.4733099937438965,-3,-2,-2,0,-4,-2,-3,-2,1756998556873692750
0,3.3168432709999998,20250904110916874,None,-12758,5.4733099937438965,0,-1,0,-1,0,-2,-1,2,1756998556873809099
0,3.332346439,20250904110916890,None,-12759,13.326319694519043,1,-4,0,-3,-3,-2,-3,2,1756998556889322996
0,3.332577229,20250904110916890,None,-12759,13.326319694519043,1,2,1,0,-2,-1,2,0,1756998556889440298
0,3.332818747,20250904110916890,None,-12759,13.326319694519043,0,-2,1,1,-2,1,-1,0,1756998556890110492
0,3.333002567,20250904110916890,None,-12760,13.326319694519043,-2,-5,-1,2,3,2,0,0,1756998556890213489
0,3.34679246,20250904110916904,None,-12761,11.184589385986328,-3,1,-3,-4,-4,1,2,0,1756998556903649091
0,3.347010613,20250904110916904,None,-12761,11.184589385986328,-2,-3,-2,-3,-5,0,-1,0,1756998556903770446
0,3.369650364,20250904110916927,None,-12765,8.804889678955078,-3,-3,-2,1,-1,-1,2,-4,1756998556926799535
0,3.36975646,20250904110916927,None,-12765,8.804889678955078,0,-2,-1,1,2,-1,-3,-3,1756998556926929473
0,3.370011091,20250904110916927,None,-12765,8.804889678955078,1,0,1,-2,0,0,-4,0,1756998556927500724
0,3.370055914,20250904110916927,None,-12765,8.804889678955078,-1,1,1,-1,-1,-3,-2,-1,1756998556927613019
0,3.376173735,20250904110916933,None,-12765,12.136469841003418,0,1,-2,1,1,2,-2,0,1756998556933560848
0,3.376273632,20250904110916933,None,-12765,12.136469841003418,2,-3,1,-2,-3,-2,1,0,1756998556933682918
0,3.383825541,20250904110916941,None,-12766,5.71127986907959,0,-1,0,-1,2,-2,-1,-1,1756998556941170692
0,3.383948565,20250904110916941,None,-12766,5.71127986907959,-2,2,0,-1,-3,2,-2,1,1756998556941363096
0,3.391352415,20250904110916949,None,-12767,13.564290046691895,4,-1,-2,-3,-1,0,-1,0,1756998556948719978
0,3.391476393,20250904110916949,None,-12767,13.564290046691895,-4,-4,-3,-5,-5,-4,0,0,1756998556948882102
0,3.406462193,20250904110916964,None,-12768,5.235340118408203,-3,1,0,1,2,0,-2,-4,1756998556963787317
0,3.4067952630000002,20250904110916964,None,-12769,5.235340118408203,1,-2,-1,2,1,-4,-1,0,1756998556963998317
0,3.413802147,20250904110916971,None,-12769,13.326319694519043,-1,0,-3,-1,-4,-3,-1,1,1756998556971160888
0,3.413922072,20250904110916971,None,-12769,13.326319694519043,-1,1,0,-1,1,0,-1,-3,1756998556971334457
0,3.421302319,20250904110916978,None,-12770,6.6631598472595215,-1,-1,-2,-3,-2,-2,-2,-1,1756998556978693485
0,3.421401024,20250904110916979,None,-12770,6.6631598472595215,-1,-1,1,-2,0,1,-4,-1,1756998556978866338
0,3.436306,20250904110916993,None,-12772,9.04286003112793,0,-1,-2,-4,-6,-8,-1,-2,1756998556993637561
0,3.436481714,20250904110916994,None,-12772,9.04286003112793,1,-1,1,2,-2,-4,-3,-3,1756998556993776082
0,3.443887472,20250904110917001,None,-12773,9.04286003112793,-2,-1,2,0,1,3,1,-2,1756998557001284599
0,3.443992615,20250904110917001,None,-12773,9.04286003112793,-3,-4,-2,1,0,0,0,0,1756998557001454591
0,3.451160431,20250904110917008,None,-12773,9.04286003112793,1,-2,0,-2,0,1,-1,0,1756998557008626937
0,3.451230765,20250904110917008,None,-12773,9.04286003112793,-1,0,-4,-5,-4,-2,0,-3,1756998557008735418
0,3.474924326,20250904110917032,None,-12777,13.80225944519043,-2,-1,-1,2,1,-2,1,1,1756998557032349109
0,3.47502017,20250904110917032,None,-12777,13.80225944519043,0,0,-1,-4,0,-3,-1,-1,1756998557032528400
0,3.475563288,20250904110917033,None,-12777,13.80225944519043,-3,-1,0,-2,-2,-2,-1,-1,1756998557033048391
0,3.475631952,20250904110917033,None,-12777,13.80225944519043,-2,-4,-3,-3,-1,1,-1,-1,1756998557033154487
0,3.4811635020000002,20250904110917038,None,-12778,13.80225944519043,0,-1,-3,-4,-1,-3,-2,1,1756998557038604974
0,3.481259823,20250904110917038,None,-12778,13.80225944519043,0,-3,0,-1,3,-3,0,1,1756998557038734912
0,3.496409178,20250904110917054,None,-12779,13.80225944519043,-1,-2,0,3,2,1,0,-1,1756998557053809165
0,3.496499777,20250904110917054,None,-12779,13.80225944519043,-1,0,0,-1,0,-1,-3,0,1756998557054000616
0,3.503765345,20250904110917061,None,-12780,6.187219619750977,-2,1,0,2,0,0,-2,0,1756998557061178445
0,3.503848076,20250904110917061,None,-12780,6.187219619750977,1,-3,-3,-4,-5,1,-1,-2,1756998557061343669
0,3.511297941,20250904110917068,None,-12781,11.660530090332031,1,-3,0,-3,0,2,2,-2,1756998557068749904
0,3.511380434,20250904110917069,None,-12781,11.660530090332031,-2,-3,-2,0,-4,-3,-2,-2,1756998557068893909
0,3.5262818339999997,20250904110917083,None,-12782,8.566919326782227,1,1,-1,-2,-1,2,-1,3,1756998557083698034
0,3.526373386,20250904110917084,None,-12782,8.566919326782227,-2,-1,-1,-1,-1,-5,-1,0,1756998557083865165
0,3.533751726,20250904110917091,None,-12783,9.756770133972168,0,-1,0,0,-1,-1,-1,-1,1756998557091174125
0,3.533834458,20250904110917091,None,-12783,9.756770133972168,-2,2,-2,-1,0,-1,-1,1,1756998557091351985
0,3.541217089,20250904110917098,None,-12785,10.946619987487793,-4,2,-2,-3,0,0,0,-1,1756998557098665952
0,3.541335583,20250904110917098,None,-12785,10.946619987487793,0,-5,1,0,-1,-3,-2,-1,1756998557098800897
0,3.556292057,20250904110917113,None,-12787,13.326319694519043,-2,-2,-1,-5,-3,-1,-2,0,1756998557113723039
0,3.556396484,20250904110917114,None,-12787,13.326319694519043,1,-3,-5,-2,-2,-4,-1,0,1756998557113872051
0,3.563803911,20250904110917121,None,-12787,13.326319694519043,2,1,-3,-1,-2,-3,-1,-3,1756998557121162652
0,3.563884497,20250904110917121,None,-12787,13.326319694519043,1,3,1,-1,-2,-3,-2,-2,1756998557121253967
0,3.578766823,20250904110917136,None,-12789,13.80225944519043,-1,-2,-1,1,-1,-3,0,-6,1756998557136181354
0,3.578849077,20250904110917136,None,-12789,13.80225944519043,0,-2,0,-1,1,-1,2,-1,1756998557136328935
0,3.586215496,20250904110917143,None,-12790,5.949249744415283,-1,-1,-1,1,-3,0,-1,0,1756998557143637418
0,3.586297989,20250904110917143,None,-12790,5.949249744415283,0,1,-1,0,3,1,1,0,1756998557143788337
0,3.593674183,20250904110917151,None,-12791,12.374439239501953,0,-1,-1,1,-1,-3,-2,-1,1756998557151128292
0,3.593740702,20250904110917151,None,-12791,12.374439239501953,0,3,1,-5,-1,-1,2,0,1756998557151259660
0,3.601198435,20250904110917158,None,-12792,12.374439239501953,-1,-1,0,4,3,3,-4,0,1756998557158633470
0,3.601310253,20250904110917158,None,-12792,12.374439239501953,-2,0,0,0,0,1,-2,-3,1756998557158744812
0,3.624506712,20250904110917182,None,-12795,13.80225944519043,1,0,-3,-1,-3,-1,-3,0,1756998557181871891
0,3.624644518,20250904110917182,None,-12795,13.80225944519043,0,0,-2,-2,-7,-6,-4,3,1756998557182046413
0,3.625363588,20250904110917183,None,-12795,13.80225944519043,-1,0,1,1,2,2,1,-4,1756998557182613611
0,3.625609875,20250904110917183,None,-12795,13.80225944519043,-1,-3,0,-1,1,-2,0,-2,1756998557182728052
0,3.63884759,20250904110917196,None,-12797,5.949249744415283,1,0,-1,-1,0,-1,-2,-1,1756998557196149349
0,3.638988257,20250904110917196,None,-12797,5.949249744415283,3,-5,-4,-5,-4,-2,-2,0,1756998557196254730
0,3.646379948,20250904110917204,None,-12798,13.80225944519043,-1,2,-2,3,5,0,-2,-1,1756998557203811407
0,3.646498442,20250904110917204,None,-12798,13.80225944519043,-1,1,-6,-1,1,1,1,0,1756998557203948259
0,3.653786898,20250904110917211,None,-12798,5.4733099937438965,2,-2,4,1,-4,-2,-1,-1,1756998557211199522
0,3.653888226,20250904110917211,None,-12798,5.4733099937438965,-1,-2,-1,0,0,1,-2,-1,1756998557211351633
0,3.661359787,20250904110917219,None,-12799,13.326319694519043,-3,-1,0,-3,-3,-2,1,1,1756998557218764543
0,3.6614677909999997,20250904110917219,None,-12799,13.326319694519043,-1,0,-6,0,3,-1,-1,-4,1756998557218895196
0,3.676425934,20250904110917234,None,-12801,10.946619987487793,-1,-2,1,-1,-3,-2,-2,2,1756998557233757972
0,3.676580906,20250904110917234,None,-12801,10.946619987487793,3,4,1,-5,-1,-6,-5,1,1756998557233992815
0,3.683999539,20250904110917241,None,-12801,10.946619987487793,-2,-3,-2,1,2,3,0,-3,1756998557241367816
0,3.684163332,20250904110917241,None,-12801,10.946619987487793,-2,1,0,-2,0,-1,-1,-1,1756998557241530418
0,3.698723793,20250904110917256,None,-12803,8.328949928283691,-3,-2,0,-4,-2,-1,-1,-3,1756998557256135225
0,3.698823929,20250904110917256,None,-12803,8.328949928283691,-2,2,-3,2,-2,2,-2,-1,1756998557256258249
0,3.706368923,20250904110917264,None,-12805,12.374439239501953,-1,1,0,1,0,-3,0,-2,1756998557263760089
0,3.706504583,20250904110917264,None,-12805,12.374439239501953,-2,0,1,-1,1,-2,-1,-2,1756998557263928174
0,3.713843823,20250904110917271,None,-12806,5.949249744415283,0,-3,-2,-2,-2,-2,-3,-2,1756998557271217346
0,3.713965654,20250904110917271,None,-12806,5.949249744415283,-1,-3,-1,-1,2,3,4,-1,1756998557271394252
0,3.721413136,20250904110917279,None,-12806,5.949249744415283,-3,0,-1,-1,-2,-1,0,0,1756998557278779983
0,3.72154522,20250904110917279,None,-12806,5.949249744415283,-3,-4,-4,1,1,3,2,-1,1756998557278927326
0,3.736446619,20250904110917294,None,-12808,5.4733099937438965,0,-2,-2,-1,-3,-5,2,-1,1756998557293814182
0,3.736577273,20250904110917294,None,-12808,5.4733099937438965,1,-1,-1,-3,-4,-2,-4,-3,1756998557293998479
0,3.74390626,20250904110917301,None,-12809,13.326319694519043,4,4,-2,3,6,-2,-1,0,1756998557301211833
0,3.744033337,20250904110917301,None,-12809,13.326319694519043,-1,-1,-1,0,1,2,0,1,1756998557301409959
0,3.758872748,20250904110917316,None,-12811,7.37706995010376,0,-3,0,-1,-3,-2,-4,-2,1756998557316195726
0,3.759032011,20250904110917316,None,-12811,7.37706995010376,-3,0,1,-2,-5,0,-1,-1,1756998557316393375
0,3.7662160399999998,20250904110917323,None,-12811,11.184589385986328,1,0,1,-3,-2,-4,-1,-1,1756998557323607921
0,3.766338825,20250904110917323,None,-12811,11.184589385986328,2,-15,-2,-5,-6,-1,0,0,1756998557323750495
0,3.773982525,20250904110917331,None,-12812,9.518799781799316,-1,0,3,5,7,2,1,0,1756998557331373453
0,3.774131298,20250904110917331,None,-12812,9.518799781799316,-1,3,-4,-2,0,-2,-2,0,1756998557331525564
0,3.7888741489999997,20250904110917346,None,-12815,11.898499488830566,3,1,-1,-5,-5,-3,-1,-1,1756998557346217870
0,3.789017201,20250904110917346,None,-12815,11.898499488830566,-2,-3,-1,-4,-3,-1,-4,-3,1756998557346398353
0,3.796313048,20250904110917353,None,-12816,11.898499488830566,-3,-4,-1,-4,0,4,1,0,1756998557353678703
0,3.796443462,20250904110917354,None,-12816,11.898499488830566,-3,0,-2,1,0,0,2,2,1756998557353836774
0,3.803734064,20250904110917361,None,-12816,5.949249744415283,-1,0,-3,0,-2,-1,-1,0,1756998557361140012
0,3.803971529,20250904110917361,None,-12816,5.949249744415283,-3,-1,-1,0,-2,-3,-2,-1,1756998557361258029
0,3.8188490870000003,20250904110917376,None,-12818,5.4733099937438965,-1,1,2,1,-2,-1,-1,-5,1756998557376204252
0,3.818995476,20250904110917376,None,-12818,5.4733099937438965,-1,0,-3,2,0,0,0,-4,1756998557376378059
0,3.826248646,20250904110917383,None,-12819,13.326319694519043,-1,-2,0,-2,-1,2,-3,-2,1756998557383642435
0,3.826385737,20250904110917384,None,-12819,13.326319694519043,1,0,-2,-3,-6,-1,-1,-1,1756998557383783102
0,3.833780766,20250904110917391,None,-12820,13.326319694519043,-3,-4,0,-2,0,2,-1,0,1756998557391173124
0,3.833973646,20250904110917391,None,-12820,6.425189971923828,0,2,0,0,1,-2,-3,0,1756998557391268491
0,3.848868609,20250904110917406,None,-12821,11.42255973815918,-4,-1,1,-3,0,-3,-2,-1,1756998557406201601
0,3.849070072,20250904110917406,None,-12821,11.42255973815918,-2,-5,-2,0,2,1,0,1,1756998557406392812
0,3.856389523,20250904110917414,None,-12822,8.804889678955078,1,4,0,2,0,-2,-3,-1,1756998557413765430
0,3.8565166,20250904110917414,None,-12822,8.804889678955078,-1,0,-6,-5,-3,1,-4,-1,1756998557413935661
0,3.863792181,20250904110917421,None,-12823,9.280829429626465,-2,-1,-2,-1,-7,0,-1,0,1756998557421190738
0,3.8638932710000002,20250904110917421,None,-12823,9.280829429626465,-2,-2,-1,0,-2,-1,0,1,1756998557421346187
0,3.878685236,20250904110917436,None,-12825,11.184589385986328,-2,-3,-2,2,2,0,-3,-4,1756998557436094760
0,3.878787756,20250904110917436,None,-12825,11.184589385986328,4,1,-2,1,1,-1,1,-2,1756998557436218261
0,3.886973381,20250904110917444,None,-12825,6.901129722595215,-1,-1,1,2,-1,2,3,0,1756998557443736553
0,3.887197971,20250904110917444,None,-12825,6.901129722595215,-3,-4,1,-4,-1,-3,1,0,1756998557443929433
0,3.893878222,20250904110917451,None,-12827,13.80225944519043,1,2,0,0,5,0,1,-1,1756998557451248645
0,3.8940777779999998,20250904110917451,None,-12827,13.80225944519043,1,2,-2,-4,-3,-3,-2,2,1756998557451390504
0,3.909200192,20250904110917466,None,-12829,13.80225944519043,0,0,-2,1,1,2,-1,1,1756998557466603994
0,3.909323454,20250904110917466,None,-12829,13.80225944519043,-3,1,0,-1,-6,-5,0,0,1756998557466758728
0,3.916218281,20250904110917473,None,-12829,13.80225944519043,1,0,-1,0,2,3,0,-1,1756998557473662376
0,3.916323662,20250904110917473,None,-12829,13.80225944519043,-1,-3,-1,-3,-6,-3,-3,-1,1756998557473803758
0,3.923796415,20250904110917481,None,-12830,6.187219619750977,-2,-1,0,-3,-4,-1,1,0,1756998557481142282
0,3.92393589,20250904110917481,None,-12830,6.187219619750977,2,2,2,0,-2,0,-1,0,1756998557481256246
0,3.938826561,20250904110917496,None,-12832,8.566919326782227,0,-5,0,-1,1,-1,1,0,1756998557496186017
0,3.938959599,20250904110917496,None,-12832,8.566919326782227,0,1,-5,-7,-1,-2,-2,2,1756998557496345996
0,3.946385145,20250904110917504,None,-12833,9.756770133972168,0,-1,0,0,-4,-1,0,-1,1756998557503770351
0,3.9465012550000003,20250904110917504,None,-12833,9.756770133972168,0,-3,-2,-2,-3,-1,-3,-1,1756998557503926753
0,3.953749418,20250904110917511,None,-12835,9.756770133972168,-1,3,0,-2,-1,1,0,-1,1756998557511187553
0,3.953841686,20250904110917511,None,-12835,9.756770133972168,-1,0,-3,1,0,1,0,2,1756998557511301040
0,3.968870163,20250904110917526,None,-12835,7.139100074768066,2,-4,-1,-3,-2,-1,-1,0,1756998557526268005
0,3.968987942,20250904110917526,None,-12835,7.139100074768066,1,-4,-2,0,1,-2,-2,-1,1756998557526432752
0,3.976237059,20250904110917533,None,-12837,13.564290046691895,0,-1,1,-2,-2,1,1,1,1756998557533642053
0,3.976358891,20250904110917534,None,-12837,13.564290046691895,-2,-2,0,-4,2,1,2,-1,1756998557533810853
0,3.9837708469999997,20250904110917541,None,-12838,5.71127986907959,-1,-1,1,1,1,0,-1,1,1756998557541196346
0,3.983877421,20250904110917541,None,-12838,5.71127986907959,2,0,-2,-4,-1,-2,-2,-2,1756998557541348457
0,3.9987239839999997,20250904110917556,None,-12839,13.80225944519043,-4,-1,-2,2,0,3,-2,-1,1756998557556144714
0,3.9988515380000003,20250904110917556,None,-12839,13.80225944519043,0,-1,1,9,2,1,0,1,1756998557556259155
0,4.006399393,20250904110917564,None,-12840,5.949249744415283,0,0,-5,-2,1,-1,0,-1,1756998557563771486
0,4.006546021,20250904110917564,None,-12840,5.949249744415283,-2,1,-3,-2,-2,0,-2,1,1756998557563893079
0,4.013787031,20250904110917571,None,-12841,12.612409591674805,-2,1,-1,0,-2,0,0,-2,1756998557571184396
0,4.013878107,20250904110917571,None,-12841,12.612409591674805,1,0,-1,3,0,0,0,1,1756998557571252584
0,4.028822184,20250904110917586,None,-12843,8.09097957611084,1,2,-1,-4,-3,-2,-2,1,1756998557586198568
0,4.02902484,20250904110917586,None,-12843,10.232709884643555,-3,-4,0,-2,3,1,0,-1,1756998557586335182
0,4.036263466,20250904110917593,None,-12845,10.232709884643555,-2,1,-1,0,3,0,-1,-4,1756998557593703508
0,4.036383629,20250904110917594,None,-12845,10.232709884643555,-3,-4,0,2,1,2,-2,-2,1756998557593829631
0,4.043676853,20250904110917601,None,-12845,10.232709884643555,3,1,0,-1,-2,0,-5,-2,1756998557601106643
0,4.043786526,20250904110917601,None,-12845,10.232709884643555,-1,-4,-2,-5,1,0,1,1,1756998557601250886
0,4.058684349,20250904110917616,None,-12847,12.612409591674805,1,-1,-1,1,-2,-2,0,1,1756998557616118431
0,4.058797121,20250904110917616,None,-12847,12.612409591674805,0,-4,0,1,-3,-3,-2,-5,1756998557616256237
0,4.066211224,20250904110917623,None,-12848,5.4733099937438965,-1,-3,-1,0,-2,0,-1,-2,1756998557623685359
0,4.066303253,20250904110917623,None,-12848,5.4733099937438965,0,2,-3,-6,-5,1,-1,-2,1756998557623795509
0,4.073753834,20250904110917631,None,-12849,13.564290046691895,2,-4,-4,2,2,2,-4,0,1756998557631179094
0,4.073863983,20250904110917631,None,-12849,13.564290046691895,-1,3,2,0,1,1,2,0,1756998557631281137
0,4.088843584,20250904110917646,None,-12850,5.949249744415283,-1,-5,-1,-2,-2,-4,0,-1,1756998557646190166
0,4.088995695,20250904110917646,None,-12850,5.949249744415283,4,-2,-4,0,-1,2,0,1,1756998557646337985
0,4.096242905,20250904110917653,None,-12851,12.850379943847656,0,1,3,-2,-2,4,2,-1,1756998557653678417
0,4.096371651,20250904110917654,None,-12851,12.850379943847656,-4,2,2,-6,-1,2,-2,-2,1756998557653817653
0,4.103687763,20250904110917661,None,-12852,7.8530097007751465,0,-2,-1,-2,-4,-5,1,1,1756998557661143064
0,4.103798866,20250904110917661,None,-12852,7.8530097007751465,0,0,-2,5,2,-1,2,3,1756998557661255121
0,4.118863106,20250904110917676,None,-12854,10.470680236816406,0,-1,1,1,-3,-2,0,0,1756998557676197528
0,4.119034052,20250904110917676,None,-12854,9.994739532470703,-3,-6,-1,-3,-3,-3,-5,1,1756998557676418304
0,4.126199961,20250904110917683,None,-12854,9.994739532470703,-3,-1,-3,-3,1,-1,-1,-1,1756998557683624267
0,4.12635541,20250904110917683,None,-12854,9.994739532470703,0,1,-1,-2,-3,-1,0,1,1756998557683762073
0,4.133854866,20250904110917691,None,-12855,8.328949928283691,-3,-3,-1,-3,-1,1,-1,-1,1756998557691261529
0,4.133963347,20250904110917691,None,-12855,8.328949928283691,2,1,-1,1,0,-1,2,-1,1756998557691407680
0,4.148884058,20250904110917706,None,-12858,5.71127986907959,0,2,0,-3,0,-2,-2,-2,1756998557706271171
0,4.149002075,20250904110917706,None,-12858,5.71127986907959,-5,-5,-2,-4,-3,-1,-1,-4,1756998557706449985
0,4.156213522,20250904110917713,None,-12859,13.80225944519043,0,0,-1,1,4,3,0,-1,1756998557713650703
0,4.156293869,20250904110917713,None,-12859,13.80225944519043,0,1,-4,-3,3,-5,1,-3,1756998557713787555
0,4.163733244,20250904110917721,None,-12859,13.80225944519043,2,-1,-2,-1,-3,-2,-2,-1,1756998557721144914
0,4.163812399,20250904110917721,None,-12859,13.80225944519043,-3,-2,-3,0,-4,1,0,-1,1756998557721292257
0,4.178893328,20250904110917736,None,-12861,13.326319694519043,-2,-3,0,0,-1,1,0,0,1756998557736279010
0,4.179000378,20250904110917736,None,-12861,13.326319694519043,-3,-4,-1,0,0,0,-2,-1,1756998557736424684
0,4.186155558,20250904110917743,None,-12862,7.139100074768066,-1,-3,-3,-6,-1,-1,0,-2,1756998557743601322
0,4.186253786,20250904110917743,None,-12862,7.139100074768066,-3,0,-1,-5,-7,-4,0,-2,1756998557743722200
0,4.193809509,20250904110917751,None,-12863,11.42255973815918,-3,-6,1,2,0,0,0,-4,1756998557751209259
0,4.193949461,20250904110917751,None,-12863,11.42255973815918,1,0,-1,3,-4,-2,-3,-3,1756998557751358270
0,4.208839178,20250904110917766,None,-12864,9.994739532470703,-4,0,-2,1,0,0,-2,1,1756998557766194343
0,4.208977699,20250904110917766,None,-12864,9.994739532470703,1,0,-1,2,2,-3,-1,3,1756998557766359567
0,4.216175795,20250904110917773,None,-12865,8.328949928283691,-1,-2,0,1,-5,-3,-1,-2,1756998557773612976
0,4.216275692,20250904110917773,None,-12865,8.328949928283691,-3,-3,3,1,1,0,-1,-1,1756998557773693084
0,4.223742485,20250904110917781,None,-12867,12.374439239501953,0,1,1,0,-1,-2,0,-2,1756998557781146049
0,4.223874569,20250904110917781,None,-12867,12.374439239501953,0,0,-1,-3,-2,0,-2,2,1756998557781253099
0,4.238990069,20250904110917796,None,-12868,5.949249744415283,-1,1,-2,0,0,-2,-3,-1,1756998557796173572
0,4.239129543,20250904110917796,None,-12868,5.949249744415283,0,3,-1,-3,-4,-2,0,2,1756998557796318769
0,4.246471882,20250904110917804,None,-12869,14.040229797363281,-2,-1,0,-3,-1,-1,-3,1,1756998557803655862
0,4.246623993,20250904110917804,None,-12869,14.040229797363281,0,0,-2,4,-3,0,0,-2,1756998557803779363
0,4.254032135,20250904110917811,None,-12870,6.901129722595215,-3,-1,1,3,2,4,-3,0,1756998557811217069
0,4.254172325,20250904110917811,None,-12870,6.901129722595215,-1,-1,-2,-4,0,2,-3,0,1756998557811339378
0,4.269041062,20250904110917826,None,-12871,11.660530090332031,3,-2,0,0,1,0,1,-2,1756998557826201200
0,4.269251585,20250904110917826,None,-12871,11.660530090332031,-1,-2,1,-2,1,-1,0,0,1756998557826357841
0,4.276623249,20250904110917834,None,-12872,9.280829429626465,-2,-1,-3,-5,-2,-1,0,0,1756998557833750247
0,4.276767969,20250904110917834,None,-12872,9.280829429626465,-1,-4,-3,-4,0,-2,0,0,1756998557833929061
0,4.283962965,20250904110917841,None,-12873,9.518799781799316,3,1,0,1,2,-2,-1,0,1756998557841155290
0,4.284261942,20250904110917841,None,-12873,9.518799781799316,-1,-3,-2,0,3,2,0,0,1756998557841270208
0,4.299082041,20250904110917856,None,-12876,6.6631598472595215,-2,-4,0,0,2,1,0,1,1756998557856256246
0,4.299215317,20250904110917856,None,-12876,6.6631598472595215,1,1,-2,1,-4,-1,-3,0,1756998557856409549
0,4.306347609,20250904110917863,None,-12877,6.6631598472595215,-1,0,-2,0,-2,-3,-2,0,1756998557863582134
0,4.306439638,20250904110917864,None,-12877,6.6631598472595215,-1,0,0,1,-2,-4,-2,0,1756998557863694906
0,4.314058781,20250904110917871,None,-12877,13.564290046691895,0,-3,0,4,1,1,-1,-3,1756998557871246576
0,4.314182758,20250904110917871,None,-12877,13.564290046691895,0,-2,1,-3,-3,-1,0,0,1756998557871385335
0,4.329072476,20250904110917886,None,-12879,13.564290046691895,-1,1,-3,-2,-3,-2,0,-3,1756998557886253595
0,4.329234839,20250904110917886,None,-12879,13.564290046691895,2,4,-3,1,-4,-5,-2,1,1756998557886400461
0,4.336436987,20250904110917894,None,-12880,6.187219619750977,1,2,2,-1,0,0,-1,-2,1756998557893664598
0,4.33654213,20250904110917894,None,-12880,6.187219619750977,0,-2,-1,3,-3,1,-1,0,1756998557893801450
0,4.343965769,20250904110917901,None,-12881,6.187219619750977,-3,-3,-1,-2,-3,0,-2,0,1756998557901159286
0,4.344177485,20250904110917901,None,-12881,6.187219619750977,0,-8,-2,-2,1,-2,-2,1,1756998557901252508
0,4.358944178,20250904110917916,None,-12882,8.566919326782227,-1,0,-4,-3,1,-1,0,2,1756998557916163921
0,4.35907507,20250904110917916,None,-12882,8.566919326782227,-1,3,-2,-1,-2,-1,-2,-2,1756998557916321992
0,4.366429329,20250904110917924,None,-12883,9.756770133972168,-3,-1,3,-1,0,1,3,-1,1756998557923633337
0,4.366518259,20250904110917924,None,-12883,9.756770133972168,0,0,0,1,-4,-1,-2,0,1756998557923787832
0,4.374385119,20250904110917932,None,-12885,11.660530090332031,-1,-2,-1,1,3,0,0,1,1756998557931561946
0,4.374478102,20250904110917932,None,-12885,11.660530090332031,4,0,-3,0,-2,-2,3,0,1756998557931701183
0,4.388893128,20250904110917946,None,-12887,7.139100074768066,-5,-1,-2,-1,-2,1,0,-3,1756998557946244001
0,4.3890481,20250904110917946,None,-12887,7.139100074768066,1,-2,1,-2,-2,-5,0,-2,1756998557946391344
0,4.39619875,20250904110917953,None,-12888,13.326319694519043,-2,0,2,1,-2,2,-3,0,1756998557953634262
0,4.396322966,20250904110917953,None,-12888,13.326319694519043,-3,-1,-1,-3,4,2,-1,0,1756998557953754901
0,4.403837204,20250904110917961,None,-12888,5.4733099937438965,1,-3,-1,-2,-4,1,1,-1,1756998557961162328
0,4.403953076,20250904110917961,None,-12888,5.4733099937438965,1,-3,-1,-2,-1,-1,-1,0,1756998557961262226
0,4.418847799,20250904110917976,None,-12890,5.949249744415283,1,-2,-2,-3,-4,-2,-2,1,1756998557976162672
0,4.418980599,20250904110917976,None,-12890,5.949249744415283,1,5,-5,0,4,0,-2,-2,1756998557976254224
0,4.426332235,20250904110917983,None,-12891,12.136469841003418,-1,0,0,0,-1,-4,0,-1,1756998557983747482
0,4.42643261,20250904110917984,None,-12891,12.136469841003418,0,-2,-1,-1,1,-5,-3,-1,1756998557983916997
0,4.433930159,20250904110917991,None,-12892,12.136469841003418,1,0,0,-2,-1,1,0,-1,1756998557991301774
0,4.434078217,20250904110917991,None,-12892,12.136469841003418,-1,0,0,-1,4,-2,-1,2,1756998557991471290
0,4.44902134,20250904110918006,None,-12893,9.994739532470703,-3,3,1,0,-1,2,-1,-2,1756998558006197214
0,4.449157715,20250904110918006,None,-12893,9.994739532470703,-3,-6,-5,-4,-6,-4,-3,-1,1756998558006345510
0,4.464500189,20250904110918022,None,-12895,7.615039825439453,3,-3,-3,1,2,1,3,0,1756998558021855592
0,4.46464777,20250904110918022,None,-12895,7.615039825439453,-2,-4,0,0,-1,-4,-3,-4,1756998558021999359
0,4.465770483,20250904110918023,None,-12895,7.615039825439453,0,4,-2,-3,-1,-1,-1,-1,1756998558023051023
0,4.465902329,20250904110918023,None,-12895,7.615039825439453,-2,0,2,-4,-1,0,0,-1,1756998558023149490
0,4.479034901,20250904110918036,None,-12897,13.326319694519043,-2,1,0,0,2,1,0,-1,1756998558036163091
0,4.479182959,20250904110918036,None,-12897,13.326319694519043,2,-2,1,1,-2,0,-3,-4,1756998558036248922
0,4.486460209,20250904110918044,None,-12898,5.4733099937438965,0,1,0,-3,-4,2,-3,-1,1756998558043739795
0,4.486686468,20250904110918044,None,-12898,5.4733099937438965,-5,1,0,0,-2,-4,1,-1,1756998558043873071
0,4.494058848,20250904110918051,None,-12899,14.040229797363281,1,-4,-1,0,0,-1,-3,1,1756998558051277637
0,4.494254351,20250904110918051,None,-12899,14.040229797363281,-2,-2,-2,-1,3,1,2,0,1756998558051438808
0,4.509032965,20250904110918066,None,-12901,13.088349342346191,-1,-2,-1,0,1,1,0,1,1756998558066159248
0,4.509232521,20250904110918066,None,-12901,13.088349342346191,-3,-1,-3,-3,0,-1,2,0,1756998558066257715
0,4.516225815,20250904110918073,None,-12901,13.088349342346191,-1,-2,-6,-2,2,-3,0,-2,1756998558073664426
0,4.516366243,20250904110918074,None,-12901,13.088349342346191,4,1,-3,1,-4,-1,0,4,1756998558073778867
0,4.523738384,20250904110918081,None,-12902,7.8530097007751465,1,-2,1,0,-4,-3,-2,-4,1756998558081152915
0,4.523825169,20250904110918081,None,-12902,7.8530097007751465,-1,1,0,-1,-1,2,1,-2,1756998558081253051
0,4.538867951,20250904110918096,None,-12904,9.994739532470703,-4,-1,-2,4,5,0,0,-1,1756998558096239089
0,4.538999558,20250904110918096,None,-12904,9.994739532470703,1,-1,0,-3,0,-2,0,-3,1756998558096395969
0,4.546449185,20250904110918104,None,-12905,7.8530097007751465,-3,2,1,0,-3,-2,-1,-1,1756998558103736877
0,4.546536446,20250904110918104,None,-12905,7.8530097007751465,-1,-1,-1,0,-3,-3,-1,1,1756998558103856086
0,4.553785801,20250904110918111,None,-12907,7.8530097007751465,-2,-1,3,3,-4,-3,-2,0,1756998558111185312
0,4.553879261,20250904110918111,None,-12907,7.8530097007751465,2,0,0,0,-1,-3,1,0,1756998558111321449
0,4.577207089,20250904110918134,None,-12909,13.80225944519043,2,-2,-5,-3,1,1,-1,0,1756998558134573221
0,4.577315807,20250904110918134,None,-12909,13.80225944519043,-1,0,-3,-1,-3,-2,-2,-3,1756998558134774208
0,4.577824831,20250904110918135,None,-12909,13.80225944519043,2,-2,-1,3,6,2,1,-2,1756998558135248422
0,4.577916145,20250904110918135,None,-12909,13.80225944519043,-2,2,1,-1,-6,-2,-4,-1,1756998558135422706
0,4.583786249,20250904110918141,None,-12910,5.71127986907959,-2,0,0,-1,-1,-1,4,1,1756998558141198158
0,4.583876848,20250904110918141,None,-12910,5.71127986907959,-2,-4,-1,-1,1,-1,0,-1,1756998558141347408
0,4.5988588329999995,20250904110918156,None,-12911,13.564290046691895,-2,-21,0,-4,0,-3,-5,1,1756998558156185865
0,4.598959208,20250904110918156,None,-12911,13.564290046691895,1,9,-1,1,1,1,0,-2,1756998558156349658
0,4.60627985,20250904110918163,None,-12912,6.901129722595215,-2,0,0,1,-1,-3,-3,-2,1756998558163703918
0,4.606368065,20250904110918164,None,-12912,6.901129722595215,1,2,1,-2,-1,0,-3,0,1756998558163833141
0,4.613816023,20250904110918171,None,-12913,11.42255973815918,0,-3,0,-3,-1,-4,-1,-2,1756998558171212911
0,4.613910437,20250904110918171,None,-12913,11.42255973815918,-2,-5,0,2,-1,0,-2,-4,1756998558171369075
0,4.628990173,20250904110918186,None,-12915,8.328949928283691,2,-1,-1,0,-3,-3,1,0,1756998558186310052
0,4.629154921,20250904110918186,None,-12915,8.328949928283691,0,-1,-1,-5,-4,-1,0,-2,1756998558186475515
0,4.636409044,20250904110918194,None,-12915,8.328949928283691,0,-2,-2,1,1,0,1,-2,1756998558193767070
0,4.636547566,20250904110918194,None,-12915,8.328949928283691,0,0,-4,-1,0,-4,-1,0,1756998558193893432
0,4.643773794,20250904110918201,None,-12917,12.612409591674805,0,0,-2,-1,0,-2,-3,-2,1756998558201213836
0,4.643860579,20250904110918201,None,-12917,12.612409591674805,-3,-4,0,5,3,2,0,0,1756998558201362133
0,4.658920288,20250904110918216,None,-12919,14.040229797363281,3,0,0,2,-1,1,-2,-1,1756998558216264247
0,4.659046173,20250904110918216,None,-12919,14.040229797363281,-3,-4,1,-2,-1,-3,-4,1,1756998558216419219
0,4.666233301,20250904110918223,None,-12920,5.4733099937438965,0,-2,0,-3,-2,1,-4,-3,1756998558223648309
0,4.666304827,20250904110918223,None,-12920,5.4733099937438965,2,-2,0,1,-2,-3,-1,-2,1756998558223809480
0,4.67392683,20250904110918231,None,-12920,5.4733099937438965,-2,-1,0,0,-2,0,2,-2,1756998558231163740
0,4.674130201,20250904110918231,None,-12920,5.4733099937438965,-5,-1,-1,0,0,-2,-2,-2,1756998558231277465
0,4.688964844,20250904110918246,None,-12922,6.901129722595215,-1,2,-1,-2,0,0,1,-2,1756998558246278762
0,4.689131737,20250904110918246,None,-12922,6.901129722595215,-2,-1,2,1,-1,-1,-1,0,1756998558246448040
0,4.69634676,20250904110918253,None,-12923,11.42255973815918,-1,-2,-3,-4,-1,-2,-1,1,1756998558253785610
0,4.696434975,20250904110918254,None,-12923,11.42255973815918,0,0,-1,-2,1,1,-4,1,1756998558253912687
0,4.711446285,20250904110918269,None,-12925,8.566919326782227,0,-2,1,-2,-1,-2,-2,-4,1756998558268857717
0,4.711521864,20250904110918269,None,-12925,8.566919326782227,0,-2,1,2,4,-1,-1,-3,1756998558269008636
0,4.718839407,20250904110918276,None,-12925,9.04286003112793,-1,-12,-5,-3,-5,-3,-3,0,1756998558276277065
0,4.718913078,20250904110918276,None,-12925,9.04286003112793,1,4,-1,1,4,0,-3,2,1756998558276409387
0,4.726303578,20250904110918283,None,-12927,12.136469841003418,-2,0,0,-2,-5,-4,-1,0,1756998558283756017
0,4.726388455,20250904110918284,None,-12927,12.136469841003418,1,-1,1,1,1,1,0,1,1756998558283887863
0,4.741255999,20250904110918298,None,-12929,13.564290046691895,1,0,-4,-3,-4,-2,-3,0,1756998558298683404
0,4.741346598,20250904110918298,None,-12929,13.564290046691895,0,-2,-1,-2,0,-1,0,0,1756998558298823118
0,4.748773337,20250904110918306,None,-12930,13.564290046691895,-1,1,-3,1,-4,-3,-1,3,1756998558306210041
0,4.748980284,20250904110918306,None,-12930,5.4733099937438965,-2,-3,-2,-3,-3,0,-1,0,1756998558306421041
0,4.756517649,20250904110918314,None,-12931,5.4733099937438965,0,-2,-1,-4,1,0,1,1,1756998558313877344
0,4.756618738,20250904110918314,None,-12931,5.4733099937438965,-2,2,-5,0,-2,-2,-1,-1,1756998558314056634
0,4.771356583,20250904110918329,None,-12932,5.949249744415283,-5,-5,0,-3,-3,0,-1,-1,1756998558328732967
0,4.77145648,20250904110918329,None,-12932,5.949249744415283,-2,-4,0,4,7,1,-2,-1,1756998558328886747
0,4.778985739,20250904110918336,None,-12933,11.660530090332031,1,3,3,0,-1,1,1,1,1756998558336156129
0,4.779216528,20250904110918336,None,-12933,11.660530090332031,2,1,0,-2,-3,-1,1,-2,1756998558336252927
0,4.786232472,20250904110918343,None,-12934,9.04286003112793,-1,-5,-2,-2,1,-3,-4,0,1756998558343557834
0,4.786366224,20250904110918344,None,-12934,9.04286003112793,-1,0,-2,2,0,-1,-3,1,1756998558343668699
0,4.801450491,20250904110918359,None,-12935,9.518799781799316,-1,2,-2,2,1,1,0,0,1756998558358682155
0,4.8018546109999996,20250904110918359,None,-12935,9.518799781799316,-4,1,-2,-2,-1,0,-3,2,1756998558358829259
0,4.80895114,20250904110918366,None,-12937,11.660530090332031,1,-3,-1,-2,-3,0,-3,-4,1756998558366177797
0,4.809151411,20250904110918366,None,-12937,11.660530090332031,-1,-1,-1,0,-2,1,-4,0,1756998558366326570
0,4.816887856,20250904110918374,None,-12938,6.6631598472595215,1,-2,3,-1,-4,2,-1,0,1756998558373807430
0,4.817065239,20250904110918374,None,-12938,6.6631598472595215,0,3,-1,-1,0,1,3,1,1756998558373891592
0,4.831830979,20250904110918389,None,-12940,5.4733099937438965,-2,-1,-1,-1,-1,-1,-3,-3,1756998558388726472
0,4.832072973,20250904110918389,None,-12940,5.4733099937438965,-2,-5,-1,1,2,-1,-4,0,1756998558388881206
0,4.839255333,20250904110918396,None,-12940,5.4733099937438965,-2,-1,-1,-1,-2,0,3,-2,1756998558396195650
0,4.839495421,20250904110918397,None,-12940,5.4733099937438965,-1,-4,-2,-4,-4,-4,-3,1,1756998558396342039
0,4.846675634,20250904110918404,None,-12941,13.564290046691895,-1,1,-1,0,-1,-2,1,1,1756998558403671026
0,4.8468761449999995,20250904110918404,None,-12941,13.564290046691895,-3,1,-1,0,3,0,3,-1,1756998558403791427
0,4.861839295,20250904110918419,None,-12943,11.898499488830566,-1,0,-5,-3,-1,0,-4,1,1756998558418678760
0,4.862051249,20250904110918419,None,-12943,11.898499488830566,0,1,0,0,-1,-3,-1,1,1756998558418826818
0,4.869232655,20250904110918426,None,-12944,8.328949928283691,-3,-2,0,1,0,-2,-1,0,1756998558426212310
0,4.869451046,20250904110918427,None,-12944,8.328949928283691,0,-1,-3,0,-4,-2,2,-2,1756998558426357984
0,4.876874924,20250904110918434,None,-12944,8.328949928283691,-3,-2,0,1,1,2,1,-2,1756998558433768987
0,4.877084255,20250904110918434,None,-12944,8.328949928283691,-2,5,-1,-4,-1,-1,-5,-2,1756998558433886528
0,4.891687632,20250904110918449,None,-12947,11.184589385986328,-1,-4,-1,-2,-4,-3,-4,-2,1756998558448683261
0,4.891913891,20250904110918449,None,-12947,11.184589385986328,-2,2,1,0,1,2,1,-1,1756998558448822736
0,4.899283409,20250904110918456,None,-12947,6.901129722595215,0,-3,0,0,-1,-1,1,0,1756998558456259250
0,4.8995211130000005,20250904110918457,None,-12947,6.901129722595215,-2,0,-2,-1,0,0,0,-2,1756998558456396102
0,4.906737566,20250904110918464,None,-12949,13.326319694519043,-4,-16,-3,-3,-3,-1,0,-1,1756998558463667392
0,4.907048464,20250904110918464,None,-12949,13.326319694519043,-3,0,0,-1,-2,0,1,-1,1756998558463783264
0,4.921669483,20250904110918479,None,-12950,5.4733099937438965,0,2,-1,1,2,1,0,2,1756998558478691339
0,4.921847105,20250904110918479,None,-12950,5.4733099937438965,1,2,-1,1,-1,-1,0,2,1756998558478812217
0,4.929145336,20250904110918486,None,-12951,13.80225944519043,1,-5,0,-1,-1,-2,0,-2,1756998558486153841
0,4.929341793,20250904110918487,None,-12951,13.80225944519043,-3,-2,0,0,-2,-4,0,-2,1756998558486255884
0,4.936861754,20250904110918494,None,-12952,5.949249744415283,0,1,0,1,-2,-2,-3,1,1756998558493824481
0,4.937100649,20250904110918494,None,-12952,5.949249744415283,2,-2,-2,0,0,-3,0,-2,1756998558493981361
0,4.951757193,20250904110918509,None,-12954,12.612409591674805,-2,0,-2,-2,-1,1,1,-3,1756998558508657693
0,4.951882601,20250904110918509,None,-12954,12.612409591674805,-1,-3,1,-3,1,-2,0,-2,1756998558508794307
0,4.959157705,20250904110918516,None,-12954,8.09097957611084,-2,0,-2,1,-1,-1,-1,1,1756998558516152143
0,4.959361076,20250904110918517,None,-12954,8.09097957611084,0,0,-2,0,-1,0,-1,2,1756998558516259908
0,4.966757298,20250904110918524,None,-12955,10.232709884643555,0,-1,-2,-1,-2,-1,0,-1,1756998558523697614
0,4.967045307,20250904110918524,None,-12955,10.232709884643555,0,-1,-3,-1,-1,0,0,1,1756998558523828268
0,4.981743574,20250904110918539,None,-12957,7.139100074768066,1,3,0,-1,-3,-1,0,-1,1756998558538682460
0,4.981966019,20250904110918539,None,-12957,7.139100074768066,-3,-1,-1,-1,1,2,4,1,1756998558538821220
0,4.9891779419999995,20250904110918546,None,-12959,13.088349342346191,-5,1,0,-2,1,0,-2,-3,1756998558546167135
0,4.989405155,20250904110918547,None,-12959,13.088349342346191,-3,0,0,-2,0,-1,-1,0,1756998558546268701
0,4.996824265,20250904110918554,None,-12959,13.088349342346191,-2,-2,-1,-1,-3,-3,-3,-1,1756998558553736209
0,4.997007609,20250904110918554,None,-12959,13.088349342346191,1,1,0,-3,-4,-2,-3,-1,1756998558553851604
0,5.011532784,20250904110918569,None,-12961,13.80225944519043,-3,0,1,3,5,5,-1,0,1756998558568667650
0,5.011770725,20250904110918569,None,-12961,13.80225944519043,-2,-3,-2,5,1,-4,0,1,1756998558568795204
0,5.01916647,20250904110918576,None,-12962,5.4733099937438965,1,1,-4,-3,-3,-1,-1,-1,1756998558576187849
0,5.019426823,20250904110918577,None,-12962,5.4733099937438965,-2,2,1,-4,-5,-2,0,-2,1756998558576342105
0,5.026737929,20250904110918584,None,-12963,12.850379943847656,-2,1,-1,1,0,-1,0,-4,1756998558583705902
0,5.026977062,20250904110918584,None,-12963,12.850379943847656,1,0,-1,1,-3,-1,1,0,1756998558583846092
0,5.041794777,20250904110918599,None,-12964,7.8530097007751465,-2,-1,-3,1,0,1,0,0,1756998558598679304
0,5.042052269,20250904110918599,None,-12964,7.8530097007751465,-4,-5,-2,3,2,-3,-1,-3,1756998558598825216
0,5.049019575,20250904110918606,None,-12965,10.946619987487793,-1,1,-2,0,-1,-5,-1,-2,1756998558606170415
0,5.049240589,20250904110918606,None,-12965,10.946619987487793,0,1,-1,-5,-1,-3,0,1,1756998558606333255
0,5.056561709,20250904110918614,None,-12966,10.232709884643555,-1,-1,1,-2,-1,-1,0,-2,1756998558613812446
0,5.056768179,20250904110918614,None,-12966,10.232709884643555,0,1,-2,0,1,0,0,-2,1756998558613961219
0,5.071717978,20250904110918629,None,-12969,8.09097957611084,1,-2,-3,2,1,0,-1,-1,1756998558628707170
0,5.0719347,20250904110918629,None,-12969,8.09097957611084,2,0,-1,0,-2,0,1,2,1756998558628841161
0,5.079134226,20250904110918636,None,-12969,12.612409591674805,0,1,0,1,-3,-1,-1,1,1756998558636204242
0,5.079289436,20250904110918636,None,-12969,12.612409591674805,1,-1,-3,-3,-1,-1,1,0,1756998558636362552
0,5.086467028,20250904110918644,None,-12970,5.949249744415283,-1,1,0,0,-2,1,1,-1,1756998558643668413
0,5.086692333,20250904110918644,None,-12970,5.949249744415283,-1,-3,0,-2,-5,-2,-1,2,1756998558643822908
0,5.101505041,20250904110918659,None,-12972,5.71127986907959,-1,-2,-1,-1,-1,1,-4,-3,1756998558658649444
0,5.101765394,20250904110918659,None,-12972,5.71127986907959,0,1,-2,0,0,0,0,-2,1756998558658786058
0,5.109100103,20250904110918666,None,-12973,5.71127986907959,-2,0,-4,-1,-5,-2,-7,1,1756998558666118860
0,5.109240055,20250904110918666,None,-12973,5.71127986907959,-2,-3,-2,-1,1,3,1,-2,1756998558666242599
0,5.116604805,20250904110918674,None,-12973,13.088349342346191,0,-2,-4,-6,-5,-4,-2,0,1756998558673876523
0,5.116957903,20250904110918674,None,-12974,13.088349342346191,-2,0,2,1,7,-2,-2,-1,1756998558674221038
0,5.131240845,20250904110918688,None,-12975,10.708649635314941,0,1,-1,-2,-4,1,1,0,1756998558688646793
0,5.131379604,20250904110918689,None,-12975,10.708649635314941,0,-3,-1,-2,-2,1,1,-2,1756998558688779115
0,5.138873339,20250904110918696,None,-12976,9.280829429626465,-3,0,3,1,0,-2,-4,-4,1756998558696257829
0,5.138981581,20250904110918696,None,-12976,9.280829429626465,-1,0,-3,-2,-1,-3,0,0,1756998558696433782
0,5.146291018,20250904110918704,None,-12977,9.280829429626465,1,-3,0,-2,-1,-2,0,0,1756998558703699111
0,5.146537542,20250904110918704,None,-12977,9.280829429626465,2,1,1,0,-1,-3,1,0,1756998558703845977
0,5.161282539,20250904110918718,None,-12979,12.374439239501953,1,-2,-2,-2,-1,-1,-1,-3,1756998558718667984
0,5.161389589,20250904110918719,None,-12979,12.374439239501953,-4,-2,1,2,3,0,-2,0,1756998558718797922
0,5.168720007,20250904110918726,None,-12980,5.949249744415283,0,19,-1,-5,-6,-1,-2,-3,1756998558726150035
0,5.168821335,20250904110918726,None,-12980,5.949249744415283,-1,-2,0,-4,4,1,-3,-6,1756998558726267814
0,5.176378965,20250904110918734,None,-12981,13.564290046691895,0,-3,-3,-2,-3,-2,-1,0,1756998558733818769
0,5.176484108,20250904110918734,None,-12981,13.564290046691895,-2,2,0,-3,-2,-2,-1,-1,1756998558733951568
0,5.191310883,20250904110918748,None,-12983,5.4733099937438965,0,-3,-1,0,3,1,-3,0,1756998558748692274
0,5.191441774,20250904110918749,None,-12983,5.4733099937438965,0,-2,1,0,-1,1,0,-2,1756998558748826980
0,5.198769093,20250904110918756,None,-12984,13.326319694519043,-1,0,0,-1,-3,-1,1,-1,1756998558756194829
0,5.198855877,20250904110918756,None,-12984,13.326319694519043,-2,-2,0,2,-1,1,0,0,1756998558756343126
0,5.206263781,20250904110918763,None,-12984,6.425189971923828,-2,-2,0,-2,0,-1,0,0,1756998558763687133
0,5.206353188,20250904110918763,None,-12984,6.425189971923828,2,1,-1,1,-5,-1,-2,1,1756998558763814687
0,5.229836702,20250904110918787,None,-12987,9.04286003112793,0,-3,0,0,3,0,1,1,1756998558786997795
0,5.230062008,20250904110918787,None,-12987,9.04286003112793,-1,-3,-3,-1,-1,-2,2,-1,1756998558787145614
0,5.230686665,20250904110918788,None,-12987,9.04286003112793,0,0,0,-1,-3,0,-2,-2,1756998558787724733
0,5.230884314,20250904110918788,None,-12987,9.04286003112793,0,0,-3,0,-5,0,0,2,1756998558787835359
0,5.236423969,20250904110918794,None,-12989,9.04286003112793,-1,0,-1,0,1,0,0,0,1756998558793618440
0,5.23672533,20250904110918794,None,-12989,12.136469841003418,-1,0,0,-2,2,1,1,-2,1756998558793760538
0,5.25186944,20250904110918809,None,-12990,6.187219619750977,0,-3,-1,-1,-3,-2,1,3,1756998558808816909
0,5.252118588,20250904110918809,None,-12990,6.187219619750977,-2,-3,-3,-3,-1,-3,-2,-2,1756998558809004306
0,5.267379999,20250904110918825,None,-12992,5.235340118408203,0,-6,-2,-3,-2,-1,-3,-1,1756998558824425220
0,5.267583847,20250904110918825,None,-12992,5.235340118408203,-1,1,-2,3,5,2,-2,-1,1756998558824585437
0,5.268063307,20250904110918825,None,-12992,5.235340118408203,2,1,0,1,2,-1,-1,-1,1756998558825258016
0,5.268247843,20250904110918825,None,-12992,5.235340118408203,1,2,-1,-3,-4,0,-3,2,1756998558825514793
0,5.281592131,20250904110918839,None,-12993,13.80225944519043,-3,-2,-1,-1,-6,0,-1,-3,1756998558838689088
0,5.281865835,20250904110918839,None,-12993,13.80225944519043,-3,0,-3,-3,2,0,-1,1,1756998558838830947
0,5.289271832,20250904110918846,None,-12994,6.187219619750977,-2,-3,-2,0,-3,-2,-2,-1,1756998558846209287
0,5.289491654,20250904110918847,None,-12994,6.187219619750977,-4,-5,-2,0,0,1,1,-2,1756998558846348047
0,5.296770334,20250904110918854,None,-12995,11.42255973815918,2,14,1,-1,2,-2,0,-2,1756998558853680133
0,5.297013283,20250904110918854,None,-12995,11.42255973815918,0,0,-3,0,-2,-1,-2,0,1756998558853812932
0,5.319882631,20250904110918877,None,-12999,9.280829429626465,-2,1,0,3,-1,-4,1,0,1756998558876911878
0,5.3201272490000004,20250904110918877,None,-12999,9.280829429626465,0,-1,0,-2,-3,3,-2,0,1756998558877100229
0,5.320338488,20250904110918877,None,-12999,9.280829429626465,-1,-6,-3,-4,-1,0,-1,-1,1756998558877635478
0,5.320494413,20250904110918878,None,-12999,9.280829429626465,1,1,0,3,3,-2,-1,0,1756998558877753019
0,5.326395989,20250904110918884,None,-12999,11.660530090332031,5,2,0,-2,2,1,-1,0,1756998558883660078
0,5.326590061,20250904110918884,None,-12999,11.660530090332031,-1,-2,0,-3,-4,1,0,1,1756998558883786916
0,5.341478586,20250904110918899,None,-13001,13.326319694519043,-4,-3,-2,-4,-1,-1,-3,-2,1756998558898688554
0,5.341730118,20250904110918899,None,-13001,13.326319694519043,1,0,-3,0,-1,0,-1,0,1756998558898829460
0,5.34887147,20250904110918906,None,-13002,5.4733099937438965,1,-2,-1,-3,-3,0,-1,-2,1756998558906140089
0,5.34906745,20250904110918906,None,-13002,5.4733099937438965,1,-1,0,-1,-3,-2,-2,-1,1756998558906285762
0,5.356333733,20250904110918913,None,-13003,5.4733099937438965,-2,0,-1,2,-1,-1,-1,-1,1756998558913664340
0,5.356519222,20250904110918914,None,-13003,5.4733099937438965,-4,-1,-1,-3,0,-1,-1,-1,1756998558913784980
0,5.371333361,20250904110918928,None,-13004,5.949249744415283,0,-4,-2,-1,1,-1,0,-3,1756998558928734540
0,5.371440411,20250904110918929,None,-13004,5.949249744415283,-1,-1,-1,-2,-1,0,-1,-1,1756998558928874492
0,5.378787518,20250904110918936,None,-13005,11.660530090332031,1,2,0,-3,-2,-3,3,1,1756998558936175584
0,5.37893343,20250904110918936,None,-13005,11.660530090332031,-1,0,-3,-3,-3,-4,-3,1,1756998558936285257
0,5.386263132,20250904110918943,None,-13006,8.09097957611084,-2,-2,-1,2,0,-2,-1,-1,1756998558943686723
0,5.386363745,20250904110918944,None,-13006,8.09097957611084,-2,1,-2,1,-2,0,1,-2,1756998558943820238
0,5.401259422,20250904110918958,None,-13007,9.756770133972168,0,1,-2,-2,-2,1,1,3,1756998558958670139
0,5.401359558,20250904110918959,None,-13007,9.756770133972168,-4,-2,-1,-2,-5,-2,-1,-3,1756998558958810091
0,5.408818007,20250904110918966,None,-13009,11.184589385986328,-1,-4,1,1,0,-1,-4,-2,1756998558966217279
0,5.408908367,20250904110918966,None,-13009,11.184589385986328,-1,3,0,-3,2,1,2,1,1756998558966397523
0,5.416392088,20250904110918974,None,-13009,6.901129722595215,2,0,-5,-1,1,-1,-1,-1,1756998558973712205
0,5.416708708,20250904110918974,None,-13009,6.901129722595215,-2,2,1,-2,-2,0,1,-2,1756998558973855018
0,5.431272507,20250904110918988,None,-13012,13.326319694519043,-3,-2,-1,-3,-1,-5,-1,-2,1756998558988695144
0,5.431426048,20250904110918989,None,-13012,13.326319694519043,-2,-2,-3,-2,1,1,0,-1,1756998558988857507
0,5.438812494,20250904110918996,None,-13012,5.4733099937438965,0,-3,-1,1,-2,-4,-1,0,1756998558996223449
0,5.438887358,20250904110918996,None,-13012,5.4733099937438965,1,-4,-2,0,-2,0,0,-1,1756998558996398448
0,5.446228266,20250904110919003,None,-13013,13.564290046691895,3,-6,-1,0,-3,-3,2,-2,1756998559003680706
0,5.446306467,20250904110919003,None,-13013,13.564290046691895,-1,2,0,-4,0,0,-1,-2,1756998559003813982
0,5.461326599,20250904110919018,None,-13015,12.374439239501953,-2,-2,-1,0,1,3,0,-1,1756998559018677473
0,5.461470604,20250904110919019,None,-13015,12.374439239501953,-1,-2,1,-1,-1,-3,0,-3,1756998559018849372
0,5.468731165,20250904110919026,None,-13016,8.09097957611084,-2,-1,3,-1,1,1,-2,-2,1756998559026128053
0,5.468846083,20250904110919026,None,-13016,8.09097957611084,-3,-1,-1,0,-2,-2,-4,-2,1756998559026256799
0,5.476346016,20250904110919033,None,-13016,8.09097957611084,2,-3,-3,-1,4,3,2,-3,1756998559033694028
0,5.476456404,20250904110919034,None,-13016,8.09097957611084,-1,4,-1,-4,-4,-3,0,-2,1756998559033848047
0,5.49134922,20250904110919049,None,-13019,10.470680236816406,0,-1,-1,1,5,0,-2,-3,1756998559048730134
0,5.491489649,20250904110919049,None,-13019,10.470680236816406,-1,-1,0,0,-4,1,-1,-2,1756998559048878908
0,5.498835564,20250904110919056,None,-13019,7.37706995010376,-2,0,-3,-2,-1,0,0,-1,1756998559056216001
0,5.498964071,20250904110919056,None,-13019,7.37706995010376,0,-1,1,0,-3,1,-2,-1,1756998559056368112
0,5.5063517090000005,20250904110919064,None,-13021,13.088349342346191,-3,-2,-1,-1,-1,-2,-1,-3,1756998559063695430
0,5.506541491,20250904110919064,None,-13021,13.088349342346191,-2,-2,0,-1,0,-1,-2,0,1756998559063835382
0,5.521289349,20250904110919078,None,-13022,5.4733099937438965,0,0,0,0,-1,0,0,1,1756998559078680992
0,5.5214324,20250904110919079,None,-13022,5.4733099937438965,0,1,-2,0,1,-1,-2,0,1756998559078821420
0,5.528831005,20250904110919086,None,-13023,13.564290046691895,0,2,2,-3,-3,-4,-4,-5,1756998559086200237
0,5.528993368,20250904110919086,None,-13023,13.564290046691895,-2,-6,0,0,3,1,-3,2,1756998559086354494
0,5.536412954,20250904110919094,None,-13024,5.71127986907959,-1,-3,0,0,-3,-1,1,1,1756998559093730449
0,5.536609173,20250904110919094,None,-13024,5.71127986907959,0,-3,-2,0,-1,-1,0,-2,1756998559093934774
0,5.5513153079999995,20250904110919108,None,-13026,12.850379943847656,1,3,-1,0,-2,0,-2,-1,1756998559108704328
0,5.551510096,20250904110919109,None,-13026,12.850379943847656,-2,-2,-2,1,0,-1,0,-2,1756998559108850717
0,5.558803797,20250904110919116,None,-13026,7.139100074768066,-4,0,2,-4,-3,-2,-1,3,1756998559116201639
0,5.559188366,20250904110919116,None,-13027,7.139100074768066,0,-3,-1,0,0,-2,-2,1,1756998559116576910
0,5.56633544,20250904110919123,None,-13027,10.470680236816406,1,2,-1,-1,0,-2,1,-1,1756998559123674869
0,5.566469669,20250904110919124,None,-13027,10.470680236816406,-1,-2,-3,-1,-1,-4,-1,-2,1756998559123821020
0,5.581275225,20250904110919138,None,-13029,7.615039825439453,2,25,0,-3,-4,-2,-2,-2,1756998559138640403
0,5.581399918,20250904110919139,None,-13029,7.615039825439453,1,-3,-1,-2,2,0,2,-1,1756998559138785839
0,5.588860512,20250904110919146,None,-13031,7.615039825439453,-3,-1,-2,-3,-4,-6,0,0,1756998559146141767
0,5.588981867,20250904110919146,None,-13031,7.615039825439453,0,-2,0,-1,0,-3,-1,-3,1756998559146291732
0,5.596222401,20250904110919153,None,-13032,12.612409591674805,1,-4,-3,-1,2,-3,-1,-2,1756998559153609514
0,5.596364737,20250904110919154,None,-13032,12.612409591674805,-2,-3,-3,0,1,-2,0,-2,1756998559153714418
0,5.61163044,20250904110919169,None,-13033,13.80225944519043,-1,0,-1,-2,-4,-1,-1,1,1756998559168701648
0,5.611793041,20250904110919169,None,-13033,13.80225944519043,0,1,-1,1,3,-1,-1,0,1756998559168839931
0,5.618840456,20250904110919176,None,-13034,5.4733099937438965,0,0,-1,-3,-1,-5,-4,0,1756998559176167964
0,5.6189644340000005,20250904110919176,None,-13034,5.4733099937438965,-1,0,-2,-3,-5,-3,-2,-2,1756998559176310777
0,5.626185656,20250904110919183,None,-13035,13.326319694519043,-1,2,1,4,5,-2,-3,-1,1756998559183629989
0,5.62627697,20250904110919183,None,-13035,13.326319694519043,-3,-3,-1,-3,1,2,1,-1,1756998559183738946
0,5.64146781,20250904110919199,None,-13037,7.37706995010376,0,-5,1,-5,-4,1,0,0,1756998559198750972
0,5.641663551,20250904110919199,None,-13037,7.37706995010376,2,2,1,-1,-2,1,1,1,1756998559198934793
0,5.648870707,20250904110919206,None,-13037,11.184589385986328,-1,2,-2,1,1,0,-1,1,1756998559206175088
0,5.648997784,20250904110919206,None,-13037,11.184589385986328,-3,0,0,1,1,0,-2,2,1756998559206261873
0,5.663846493,20250904110919221,None,-13039,9.280829429626465,1,0,0,1,-6,1,-2,0,1756998559221192121
0,5.66400075,20250904110919221,None,-13039,9.280829429626465,-1,-3,2,1,0,2,0,-2,1756998559221391916
0,5.671196461,20250904110919228,None,-13041,12.136469841003418,2,1,2,-1,0,-1,-3,1,1756998559228651523
0,5.671295405,20250904110919228,None,-13041,12.136469841003418,2,-3,3,-1,-1,0,0,-1,1756998559228758573
0,5.678837299,20250904110919236,None,-13042,12.136469841003418,-4,-3,0,-1,2,1,-1,1,1756998559236181020
0,5.678991556,20250904110919236,None,-13042,12.136469841003418,-4,-4,-5,0,-6,1,0,-2,1756998559236253976
0,5.693919182,20250904110919251,None,-13043,13.80225944519043,-3,-7,-2,-1,2,-1,-2,1,1756998559251222372
0,5.6941189770000005,20250904110919251,None,-13043,13.80225944519043,2,-1,-1,1,-2,-1,-1,-2,1756998559251434087
0,5.701314449,20250904110919258,None,-13044,5.71127986907959,0,1,-1,-1,0,-3,-3,0,1756998559258659362
0,5.701440334,20250904110919259,None,-13044,5.71127986907959,-4,0,-1,-4,-1,1,0,1,1756998559258788347
0,5.709042311,20250904110919266,None,-13045,13.564290046691895,-1,-3,-3,0,-2,1,-5,-2,1756998559266194343
0,5.709284783,20250904110919266,None,-13045,13.564290046691895,1,2,3,-3,-2,0,0,0,1756998559266352176
0,5.723911524,20250904110919281,None,-13046,6.6631598472595215,-1,1,-1,1,0,2,-4,-1,1756998559281278133
0,5.724064589,20250904110919281,None,-13046,6.6631598472595215,-1,-1,-6,3,2,1,-3,-1,1756998559281438350
0,5.731268406,20250904110919288,None,-13047,11.184589385986328,-1,-4,-3,0,-4,2,-1,-3,1756998559288713216
0,5.7313802240000005,20250904110919289,None,-13047,11.184589385986328,-1,0,-2,-4,-3,-4,2,-2,1756998559288837194
0,5.73873353,20250904110919296,None,-13048,9.280829429626465,-4,-3,-4,-4,-2,-8,-3,0,1756998559296154737
0,5.738837481,20250904110919296,None,-13048,9.280829429626465,0,-2,0,2,3,3,0,0,1756998559296277046
0,5.75390029,20250904110919311,None,-13051,9.04286003112793,-1,-2,-1,-2,-2,-1,-2,1,1756998559311281919
0,5.754017353,20250904110919311,None,-13051,9.04286003112793,1,-3,0,1,-1,-1,0,-2,1756998559311462402
0,5.761215925,20250904110919318,None,-13051,11.898499488830566,1,1,-1,0,0,-1,-1,-3,1756998559318670034
0,5.761306048,20250904110919318,None,-13051,11.898499488830566,2,0,-2,-5,-3,-2,2,-2,1756998559318807125
0,5.768775225,20250904110919326,None,-13051,6.901129722595215,-1,-2,-1,-1,-8,-1,-2,0,1756998559326188564
0,5.768900871,20250904110919326,None,-13051,6.901129722595215,1,0,-2,3,0,1,0,-1,1756998559326337337
0,5.783771038,20250904110919341,None,-13054,5.4733099937438965,-2,-2,-1,0,-1,-4,-2,1,1756998559341200351
0,5.783884764,20250904110919341,None,-13054,5.4733099937438965,0,3,1,0,-1,1,-3,0,1756998559341339826
0,5.791219473,20250904110919348,None,-13055,5.4733099937438965,-1,2,-3,-7,-6,0,-2,0,1756998559348660230
0,5.79133296,20250904110919348,None,-13055,5.4733099937438965,1,-2,-4,-5,-1,-4,-2,-2,1756998559348793268
0,5.798753262,20250904110919356,None,-13055,13.326319694519043,3,1,-1,0,1,1,0,0,1756998559356171607
0,5.798876524,20250904110919356,None,-13055,13.326319694519043,0,2,2,-3,-1,-4,-3,-2,1756998559356284141
0,5.813788414,20250904110919371,None,-13057,11.660530090332031,-3,-4,-1,-3,1,0,0,-1,1756998559371195793
0,5.813908577,20250904110919371,None,-13057,11.660530090332031,-2,0,3,-1,-4,-3,0,0,1756998559371343135
0,5.821242809,20250904110919378,None,-13058,8.566919326782227,-3,1,-2,4,7,3,-1,1,1756998559378660202
0,5.821350575,20250904110919378,None,-13058,8.566919326782227,-2,-1,-2,-3,1,-1,-2,-1,1756998559378779888
0,5.828779459,20250904110919386,None,-13059,9.280829429626465,1,3,-2,-1,-3,-2,-1,-2,1756998559386215686
0,5.828860045,20250904110919386,None,-13059,9.280829429626465,0,-1,2,1,-1,0,1,-2,1756998559386380195
0,5.843994141,20250904110919401,None,-13061,11.42255973815918,-3,-3,0,1,0,-1,-3,-1,1756998559401328563
