gt,time_elapsed,current_time,current_task,motor_position,futek,emg0,emg1,emg2,emg3,emg4,emg5,emg6,emg7,emg_timer_stamp
0,0.038968801,20250904110742658,None,-3703,11.184589385986328,-2,-3,0,-1,4,-1,-4,-2,1756998462658271551
0,0.039076328,20250904110742658,None,-3703,11.184589385986328,0,-3,1,-1,-5,-1,1,0,1756998462658402204
0,0.054526567,20250904110742674,None,-3703,8.328949928283691,2,-1,1,1,-2,-1,0,-2,1756998462673667907
0,0.054642439,20250904110742674,None,-3703,8.328949928283691,-2,0,-2,-4,-4,0,-1,0,1756998462673795700
0,0.061565876,20250904110742681,None,-3703,8.328949928283691,-1,-1,-1,2,2,3,1,0,1756998462680803537
0,0.061703443,20250904110742681,None,-3703,8.328949928283691,-3,0,-1,-3,-4,1,-1,-1,1756998462680939197
0,0.069092989,20250904110742688,None,-3703,14.278200149536133,0,3,-2,-5,-2,-3,0,0,1756998462688315391
0,0.069250345,20250904110742688,None,-3703,14.278200149536133,-2,-3,-2,1,-1,-4,0,0,1756998462688467979
0,0.084084749,20250904110742703,None,-3703,14.992109298706055,-1,-1,1,2,-2,1,-3,1,1756998462703311920
0,0.084210634,20250904110742703,None,-3703,14.992109298706055,-5,-4,-1,1,-1,0,1,0,1756998462703438520
0,0.099628925,20250904110742719,None,-3703,7.139100074768066,-3,2,3,0,1,-2,-1,-1,1756998462718865156
0,0.099758625,20250904110742719,None,-3703,7.139100074768066,-2,0,-4,-4,-3,-1,1,-4,1756998462718986511
0,0.100379467,20250904110742719,None,-3703,7.139100074768066,2,-4,0,0,-3,-1,-4,-3,1756998462719713687
0,0.100528955,20250904110742720,None,-3703,14.278200149536133,-3,-1,1,0,5,0,-1,0,1756998462719795465
0,0.114177227,20250904110742733,None,-3703,9.04286003112793,-2,-1,-2,5,2,0,0,-3,1756998462733261108
0,0.114372253,20250904110742733,None,-3703,9.04286003112793,0,-1,-1,-4,2,2,3,2,1756998462733501672
0,0.121930361,20250904110742741,None,-3703,11.660530090332031,-2,-4,-1,-4,-1,-2,-4,-1,1756998462740869998
0,0.122202396,20250904110742741,None,-3703,11.660530090332031,0,-2,-2,-2,-9,0,-1,-1,1756998462741145849
0,0.129077911,20250904110742748,None,-3703,10.708649635314941,-1,0,-3,-3,2,-2,-1,0,1756998462748372077
0,0.129163027,20250904110742748,None,-3703,10.708649635314941,-1,-5,-2,-1,-3,-1,-5,1,1756998462748528957
0,0.144202232,20250904110742763,None,-3703,8.804889678955078,0,-2,-2,0,0,2,2,0,1756998462763340711
0,0.144399643,20250904110742763,None,-3703,8.804889678955078,0,3,-1,-1,-4,-3,-2,0,1756998462763514280
0,0.159703255,20250904110742779,None,-3703,6.6631598472595215,1,-2,-2,-3,-1,-2,-3,-3,1756998462778766870
0,0.159912348,20250904110742779,None,-3703,6.6631598472595215,-3,-6,-1,0,1,-2,0,-2,1756998462778970479
0,0.166709423,20250904110742786,None,-3703,14.75413990020752,-1,1,1,1,-1,2,1,-1,1756998462785890817
0,0.166891813,20250904110742786,None,-3703,14.75413990020752,-1,-1,-4,2,-1,-1,2,-1,1756998462786036729
0,0.174224853,20250904110742793,None,-3703,14.75413990020752,-1,-2,1,1,-3,-1,1,2,1756998462793459177
0,0.174322605,20250904110742793,None,-3703,14.75413990020752,-1,0,0,2,-3,-3,-3,-2,1756998462793665647
0,0.181745052,20250904110742801,None,-3703,6.901129722595215,-3,-1,1,0,1,-1,1,3,1756998462800987243
0,0.181856632,20250904110742801,None,-3703,6.901129722595215,-2,2,-7,-3,-1,0,-3,0,1756998462801161766
0,0.189402103,20250904110742808,None,-3703,14.516169548034668,-1,-4,0,-1,0,1,-3,-3,1756998462808571815
0,0.189511299,20250904110742809,None,-3703,14.516169548034668,-1,-1,0,-2,-5,-3,-3,0,1756998462808763504
0,0.204149008,20250904110742823,None,-3703,12.136469841003418,1,1,-3,-1,6,2,-1,2,1756998462823323249
0,0.20430541,20250904110742823,None,-3703,12.136469841003418,-3,-5,-4,-3,-15,-5,-4,-3,1756998462823474884
0,0.211880684,20250904110742831,None,-3703,12.136469841003418,0,-1,0,4,12,3,1,0,1756998462831108808
0,0.211978197,20250904110742831,None,-3703,12.136469841003418,1,0,-2,3,1,1,-2,-1,1756998462831281185
0,0.219086647,20250904110742838,None,-3703,11.184589385986328,2,1,1,-1,-3,-1,2,3,1756998462838426113
0,0.219172716,20250904110742838,None,-3703,11.184589385986328,0,0,-3,0,-6,-3,-2,0,1756998462838569641
0,0.234395265,20250904110742853,None,-3703,13.326319694519043,0,1,0,1,-2,-1,3,1,1756998462853630542
0,0.234502554,20250904110742854,None,-3703,13.326319694519043,1,-3,-3,-3,-1,1,-5,0,1756998462853790044
0,0.24145484,20250904110742860,None,-3703,7.37706995010376,0,-1,1,0,-1,2,7,6,1756998462860845327
0,0.241543293,20250904110742861,None,-3703,7.37706995010376,4,2,2,2,0,-3,0,2,1756998462860945463
0,0.256695509,20250904110742876,None,-3703,14.75413990020752,-1,-3,1,0,-2,1,-2,-3,1756998462875963926
0,0.256819248,20250904110742876,None,-3703,14.75413990020752,1,-2,-2,-2,-2,0,1,1,1756998462876121997
0,0.264495611,20250904110742884,None,-3703,7.139100074768066,0,1,-1,0,-1,0,0,-2,1756998462883747339
0,0.264586687,20250904110742884,None,-3703,7.139100074768066,-3,-3,-1,-3,-3,-2,-3,-2,1756998462883958339
0,0.271953344,20250904110742891,None,-3703,14.516169548034668,-2,-3,0,0,-2,-1,2,2,1756998462891178131
0,0.272052765,20250904110742891,None,-3703,14.516169548034668,-1,1,1,-5,0,0,2,-3,1756998462891415119
0,0.287052393,20250904110742906,None,-3703,12.374439239501953,-2,1,0,0,-3,1,-3,0,1756998462906296014
0,0.287158966,20250904110742906,None,-3703,12.374439239501953,-4,-3,-4,-1,3,0,4,0,1756998462906496763
0,0.294533253,20250904110742914,None,-3703,12.374439239501953,-1,7,2,1,-1,-2,3,0,1756998462913794279
0,0.294671058,20250904110742914,None,-3703,12.374439239501953,0,1,1,-3,0,-3,-3,1,1756998462914012432
0,0.302104711,20250904110742921,None,-3703,10.708649635314941,4,-2,-2,-3,-3,1,3,-3,1756998462921289443
0,0.30223155,20250904110742921,None,-3703,10.708649635314941,-2,-2,0,-3,-1,0,-2,-2,1756998462921528100
0,0.316931248,20250904110742936,None,-3703,13.326319694519043,1,-1,1,-8,0,-1,0,-1,1756998462936170816
0,0.31705904,20250904110742936,None,-3703,13.326319694519043,-3,1,0,2,0,1,4,2,1756998462936402082
0,0.324447393,20250904110742943,None,-3703,7.139100074768066,3,0,2,-3,1,1,2,0,1756998462943691015
0,0.324532509,20250904110742944,None,-3703,7.139100074768066,-1,1,0,-1,-1,-1,-3,-2,1756998462943894386
0,0.332017183,20250904110742951,None,-3703,7.139100074768066,-4,-5,-2,-5,-3,-3,-4,-1,1756998462951195716
0,0.332170725,20250904110742951,None,-3703,7.139100074768066,-2,0,-1,-2,1,1,1,-4,1756998462951514482
0,0.346787453,20250904110742966,None,-3703,6.425189971923828,-1,1,1,-3,-1,2,1,3,1756998462965986490
0,0.347028255,20250904110742966,None,-3703,6.425189971923828,1,-2,-2,1,-5,-1,0,-4,1756998462966134071
0,0.354220152,20250904110742973,None,-3703,14.278200149536133,-2,0,-3,2,1,-1,0,1,1756998462973452568
0,0.354362011,20250904110742973,None,-3703,14.278200149536133,-1,-2,0,2,-2,-1,1,1,1756998462973600864
0,0.362018823,20250904110742981,None,-3703,7.615039825439453,-2,2,2,1,-2,-2,-7,-5,1756998462981210708
0,0.362137317,20250904110742981,None,-3703,7.615039825439453,0,-1,1,0,-1,-3,5,1,1756998462981458902
0,0.377205133,20250904110742996,None,-3703,10.232709884643555,0,-1,-1,-4,-3,-4,-3,-2,1756998462996413230
0,0.377346039,20250904110742996,None,-3703,10.232709884643555,-3,-3,-1,1,2,1,-2,-2,1756998462996585130
0,0.384062052,20250904110743003,None,-3703,10.232709884643555,-1,-4,-4,-2,-1,-3,0,-3,1756998463003340959
0,0.384161234,20250904110743003,None,-3703,10.232709884643555,2,-1,-1,-4,0,-3,-1,0,1756998463003446817
0,0.39160347,20250904110743011,None,-3703,10.470680236816406,-3,0,4,-2,0,0,-4,0,1756998463010949611
0,0.391721487,20250904110743011,None,-3703,10.470680236816406,0,-3,-2,-2,-2,-1,0,0,1756998463011059045
0,0.406687259,20250904110743026,None,-3703,8.09097957611084,-2,-1,-3,-2,-4,-2,-4,0,1756998463025907993
0,0.406841039,20250904110743026,None,-3703,8.09097957611084,-2,-2,0,-1,-3,0,-1,-1,1756998463026056766
0,0.413908481,20250904110743033,None,-3703,8.09097957611084,1,-3,-1,2,4,0,2,0,1756998463033216953
0,0.413988828,20250904110743033,None,-3703,8.09097957611084,0,1,1,3,-11,-3,-2,-1,1756998463033344030
0,0.421360016,20250904110743040,None,-3703,14.278200149536133,0,-1,-5,-3,3,-4,-2,-3,1756998463040734767
0,0.421410799,20250904110743040,None,-3703,14.278200149536133,-2,-3,1,4,9,4,1,0,1756998463040824413
0,0.444683075,20250904110743064,None,-3703,7.139100074768066,-2,-2,0,1,-4,2,3,-3,1756998463063945055
0,0.444793224,20250904110743064,None,-3703,7.139100074768066,-2,0,1,-3,-4,-4,0,-1,1756998463064084529
0,0.445347071,20250904110743064,None,-3703,7.139100074768066,0,-3,-2,-3,-2,1,2,2,1756998463064704418
0,0.445423603,20250904110743064,None,-3703,7.139100074768066,0,0,1,-2,0,0,0,-2,1756998463064807891
0,0.45164752,20250904110743071,None,-3703,13.088349342346191,0,0,-2,2,-1,-5,-2,-1,1756998463070910453
0,0.451793194,20250904110743071,None,-3703,13.088349342346191,1,2,-1,-3,2,2,-2,0,1756998463071083307
0,0.466539144,20250904110743086,None,-3703,9.518799781799316,-4,-1,-4,-3,0,-3,2,0,1756998463085815906
0,0.466638803,20250904110743086,None,-3703,9.518799781799316,0,-2,-1,2,-3,1,1,-1,1756998463085941314
0,0.473996401,20250904110743093,None,-3703,10.946619987487793,1,0,-2,-2,0,-2,-4,0,1756998463093305349
0,0.474094629,20250904110743093,None,-3703,10.946619987487793,0,-1,0,-3,0,-1,-1,-1,1756998463093433141
0,0.481528282,20250904110743101,None,-3703,11.184589385986328,-4,-2,-1,2,0,-1,-3,1,1756998463100809812
0,0.481633901,20250904110743101,None,-3703,11.184589385986328,-1,-7,-1,0,-3,0,1,-2,1756998463100925922
0,0.496571779,20250904110743116,None,-3703,7.8530097007751465,-3,-1,2,-1,2,1,-1,-4,1756998463115774631
0,0.496699571,20250904110743116,None,-3703,7.8530097007751465,0,4,1,1,-3,1,0,0,1756998463115887880
0,0.503953934,20250904110743123,None,-3703,14.278200149536133,-2,-1,-2,-3,-2,-2,1,-2,1756998463123271942
0,0.504030466,20250904110743123,None,-3703,14.278200149536133,-4,2,2,-3,-1,-1,0,2,1756998463123406410
0,0.51141119,20250904110743130,None,-3703,6.6631598472595215,-2,-4,-2,0,-1,-3,-3,-2,1756998463130773544
0,0.511488437,20250904110743131,None,-3703,6.6631598472595215,-1,3,0,3,-1,0,2,2,1756998463130889892
0,0.526592254,20250904110743146,None,-3703,7.139100074768066,-2,-1,0,2,1,0,-2,1,1756998463145867586
0,0.526697159,20250904110743146,None,-3703,7.139100074768066,-1,1,0,-1,-1,0,0,-1,1756998463146004438
0,0.533998728,20250904110743153,None,-3703,7.139100074768066,0,-3,-5,-1,0,-1,0,5,1756998463153264045
0,0.534115553,20250904110743153,None,-3703,7.139100074768066,0,-1,-2,0,-2,-1,-3,-5,1756998463153383255
0,0.54161191,20250904110743161,None,-3703,13.564290046691895,-2,1,0,-1,-1,1,-3,-5,1756998463160872697
0,0.541769266,20250904110743161,None,-3703,13.564290046691895,-2,0,0,-2,1,0,3,-3,1756998463160994768
0,0.556468725,20250904110743175,None,-3703,11.42255973815918,-2,-3,-2,0,-3,-3,1,1,1756998463175782680
0,0.556569576,20250904110743176,None,-3703,11.42255973815918,-2,-4,-1,0,0,-1,0,1,1756998463175906658
0,0.563969135,20250904110743183,None,-3703,11.42255973815918,-1,-1,0,-2,0,-1,-3,0,1756998463183276891
0,0.564040661,20250904110743183,None,-3703,11.42255973815918,0,-1,-3,-1,-1,0,0,-2,1756998463183405637
0,0.571531772,20250904110743191,None,-3703,11.42255973815918,1,1,2,1,0,3,0,-1,1756998463190845966
0,0.571624517,20250904110743191,None,-3703,11.42255973815918,0,0,-3,3,0,-2,-2,-4,1756998463190968275
0,0.586484909,20250904110743206,None,-3703,13.564290046691895,0,-5,0,1,1,0,2,-3,1756998463205734252
0,0.586622,20250904110743206,None,-3703,13.564290046691895,-1,-2,-2,-2,1,0,-4,-3,1756998463205864906
0,0.594027996,20250904110743213,None,-3703,6.901129722595215,1,0,-2,-1,2,1,-1,-2,1756998463213317155
0,0.594147444,20250904110743213,None,-3703,6.901129722595215,1,-2,0,-4,-1,-1,-4,4,1756998463213439702
0,0.601654768,20250904110743221,None,-3703,14.992109298706055,-2,-1,1,-2,-2,0,2,-1,1756998463220889329
0,0.60179019,20250904110743221,None,-3703,14.992109298706055,2,2,0,5,0,1,-1,1,1756998463221047878
0,0.616453886,20250904110743235,None,-3703,7.139100074768066,-2,-3,-7,0,0,1,-4,1,1756998463235718250
0,0.616573334,20250904110743236,None,-3703,7.139100074768066,1,0,-1,2,-1,-2,1,-3,1756998463235836505
0,0.623937607,20250904110743243,None,-3703,13.80225944519043,-1,2,-1,-6,-12,0,-1,1,1756998463243214607
0,0.624012947,20250904110743243,None,-3703,13.80225944519043,2,-4,-4,-2,9,-1,4,0,1756998463243351459
0,0.631466389,20250904110743250,None,-3703,8.804889678955078,0,1,-1,0,8,1,1,1,1756998463250802755
0,0.631528616,20250904110743251,None,-3703,8.804889678955078,-1,-3,3,1,-4,-4,-6,-4,1756998463250914096
0,0.646556139,20250904110743266,None,-3703,10.946619987487793,0,1,0,-4,-2,-2,-8,-3,1756998463265832185
0,0.646651506,20250904110743266,None,-3703,10.946619987487793,-2,1,0,-2,-3,0,7,-1,1756998463265950679
0,0.654093027,20250904110743273,None,-3703,10.946619987487793,-3,-2,-1,-4,-2,-4,0,-1,1756998463273365020
0,0.654244661,20250904110743273,None,-3703,10.946619987487793,0,0,2,1,1,-5,2,0,1756998463273482084
0,0.661664247,20250904110743281,None,-3703,8.804889678955078,-1,-3,-3,0,-2,4,-3,-2,1756998463280984640
0,0.661799669,20250904110743281,None,-3703,8.804889678955078,-4,1,0,0,-3,-3,-4,-2,1756998463281114816
0,0.676540375,20250904110743296,None,-3703,7.139100074768066,2,-2,-1,-1,0,1,-1,-2,1756998463295830249
0,0.67663908,20250904110743296,None,-3703,7.139100074768066,1,0,-1,-3,-3,-3,0,-2,1756998463295967578
0,0.683978796,20250904110743303,None,-3703,14.75413990020752,-4,-1,0,-2,-1,-2,0,-2,1756998463303297519
0,0.684095144,20250904110743303,None,-3703,14.75413990020752,-4,2,2,-3,-6,-1,0,0,1756998463303430318
0,0.691557407,20250904110743311,None,-3703,14.75413990020752,1,-1,-4,-1,2,-2,1,-1,1756998463310882329
0,0.691671371,20250904110743311,None,-3703,14.75413990020752,0,-1,1,0,2,1,0,2,1756998463311003923
0,0.706521511,20250904110743326,None,-3703,14.278200149536133,-2,1,1,0,-2,1,0,-1,1756998463325821399
0,0.706632137,20250904110743326,None,-3703,14.278200149536133,-3,0,2,-2,-2,-3,-3,0,1756998463325941801
0,0.714060306,20250904110743333,None,-3703,8.328949928283691,-1,2,2,2,1,0,-1,1,1756998463333344459
0,0.714201927,20250904110743333,None,-3703,8.328949928283691,1,-1,-2,0,2,0,0,-1,1756998463333473682
0,0.721606731,20250904110743341,None,-3703,11.898499488830566,-1,-2,-1,-3,-5,-1,1,0,1756998463340891361
0,0.721690893,20250904110743341,None,-3703,11.898499488830566,2,0,0,2,-1,1,0,1,1756998463341036319
0,0.736647606,20250904110743356,None,-3703,10.470680236816406,-5,-6,-5,-4,-2,-1,-5,-7,1756998463355784893
0,0.736740827,20250904110743356,None,-3703,10.470680236816406,-1,-2,-4,0,2,0,-2,-2,1756998463355897188
0,0.744284391,20250904110743363,None,-3703,9.756770133972168,-2,1,-2,-1,-2,-4,-2,-4,1756998463363269329
0,0.744366407,20250904110743363,None,-3703,9.756770133972168,2,5,0,0,0,2,1,3,1756998463363386392
0,0.751440525,20250904110743370,None,-3703,13.088349342346191,-2,0,1,-2,-1,-3,-3,0,1756998463370731115
0,0.751511097,20250904110743371,None,-3703,13.088349342346191,0,-1,-1,1,0,-1,-1,-1,1756998463370836734
0,0.766547918,20250904110743386,None,-3703,14.75413990020752,-3,-3,2,-2,2,2,-2,1,1756998463385837078
0,0.766654968,20250904110743386,None,-3703,14.75413990020752,-1,-1,-1,-3,-3,-1,-1,-1,1756998463385957956
0,0.774017811,20250904110743393,None,-3703,14.75413990020752,1,1,-2,3,3,-4,2,-2,1756998463393308877
0,0.774195671,20250904110743393,None,-3703,6.6631598472595215,-2,-4,0,-3,-3,-1,-1,-2,1756998463393453359
0,0.781591654,20250904110743401,None,-3703,6.6631598472595215,0,-2,0,0,1,1,-2,-1,1756998463400881290
0,0.781747818,20250904110743401,None,-3703,6.6631598472595215,-2,-2,-2,-1,-16,-3,0,-2,1756998463401005029
0,0.79653883,20250904110743416,None,-3703,6.901129722595215,-1,-1,-2,-2,7,1,-1,-1,1756998463415803909
0,0.796659231,20250904110743416,None,-3703,6.901129722595215,-3,2,2,0,4,-1,0,0,1756998463415924310
0,0.803952932,20250904110743423,None,-3703,12.374439239501953,1,1,-3,0,-2,-4,-6,-2,1756998463423259496
0,0.804054737,20250904110743423,None,-3703,12.374439239501953,0,0,0,-1,-6,1,10,3,1756998463423373937
0,0.811921596,20250904110743431,None,-3703,12.374439239501953,-1,10,3,3,2,-1,3,0,1756998463430794477
0,0.812174558,20250904110743431,None,-3703,9.518799781799316,-1,1,0,-2,-1,-1,-5,-1,1756998463430927515
0,0.826587438,20250904110743446,None,-3703,10.470680236816406,-5,-4,-3,0,-6,-4,-4,-5,1756998463445848226
0,0.826712131,20250904110743446,None,-3703,10.470680236816406,1,-1,-3,-1,2,2,-3,2,1756998463445977926
0,0.834093094,20250904110743453,None,-3703,13.326319694519043,-3,-1,0,-1,-3,-2,0,-2,1756998463453369379
0,0.834211588,20250904110743453,None,-3703,13.326319694519043,-1,-3,-5,0,0,-1,1,2,1756998463453508853
0,0.841600179,20250904110743461,None,-3703,7.37706995010376,0,-1,-4,0,3,-1,-1,3,1756998463460876226
0,0.841715097,20250904110743461,None,-3703,7.37706995010376,0,-3,1,-1,-1,-1,-1,-1,1756998463461012363
0,0.856557131,20250904110743476,None,-3703,14.75413990020752,-3,0,-3,-1,-3,1,2,-2,1756998463475831747
0,0.856720924,20250904110743476,None,-3703,6.901129722595215,-3,-1,1,0,-1,-2,5,0,1756998463475955486
0,0.863986969,20250904110743483,None,-3703,6.901129722595215,2,0,1,-5,1,-1,0,2,1756998463483270406
0,0.86409688,20250904110743483,None,-3703,6.901129722595215,1,-1,3,-1,0,2,-3,-2,1756998463483416557
0,0.887449026,20250904110743506,None,-3703,13.088349342346191,0,-3,-2,0,1,-3,-1,-1,1756998463506620645
0,0.887622595,20250904110743507,None,-3703,13.088349342346191,-1,3,-2,-1,-1,0,-1,0,1756998463506800889
0,0.888044596,20250904110743507,None,-3703,13.088349342346191,-3,-1,0,-2,0,-1,-2,-4,1756998463507311105
0,0.888135195,20250904110743507,None,-3703,13.088349342346191,0,-1,-1,-1,-3,-1,-1,-1,1756998463507490158
0,0.894096613,20250904110743513,None,-3703,9.756770133972168,2,-1,0,1,-1,-1,-1,0,1756998463513368606
0,0.894186735,20250904110743513,None,-3703,9.756770133972168,-2,0,-4,-1,2,0,-4,-4,1756998463513532638
0,0.901681423,20250904110743521,None,-3703,9.756770133972168,-2,0,-1,-1,-3,-2,0,0,1756998463520955801
0,0.901816606,20250904110743521,None,-3703,9.756770133972168,-1,-5,-1,2,-3,-1,3,1,1756998463521113395
0,0.916585207,20250904110743536,None,-3703,12.374439239501953,-1,2,0,5,5,2,-1,0,1756998463535850524
0,0.916686296,20250904110743536,None,-3703,12.374439239501953,0,-1,1,0,-2,0,4,-2,1756998463535992145
0,0.924003601,20250904110743543,None,-3703,8.09097957611084,-2,2,-3,-2,-3,-2,-1,1,1756998463543316364
0,0.924083948,20250904110743543,None,-3703,8.09097957611084,1,-1,-1,0,-1,-4,1,2,1756998463543468713
0,0.93163228,20250904110743551,None,-3703,14.278200149536133,-4,0,-2,-5,-5,-1,-1,-1,1756998463550906419
0,0.931740999,20250904110743551,None,-3703,14.278200149536133,-2,-2,-2,-1,-2,-1,-1,1,1756998463551092386
0,0.946646929,20250904110743566,None,-3703,6.6631598472595215,-2,-1,0,3,1,1,-3,1,1756998463565883159
0,0.946756363,20250904110743566,None,-3703,6.6631598472595215,-2,-2,-1,-2,-2,2,2,-2,1756998463566025018
0,0.954041242,20250904110743573,None,-3703,14.992109298706055,-1,-1,-1,0,1,2,-1,-1,1756998463573315620
0,0.954138517,20250904110743573,None,-3703,14.992109298706055,-5,-2,-1,-2,-3,-2,2,-2,1756998463573441028
0,0.961699009,20250904110743581,None,-3703,7.37706995010376,-3,-3,-1,0,0,-5,-6,-3,1756998463580933809
0,0.962021112,20250904110743581,None,-3703,7.37706995010376,1,1,2,-1,-10,-1,-3,1,1756998463581089735
0,0.976574182,20250904110743596,None,-3703,13.326319694519043,0,-3,-1,1,9,1,0,-2,1756998463595835208
0,0.976701975,20250904110743596,None,-3703,13.326319694519043,-1,-4,-5,-1,-2,1,-1,0,1756998463595978975
0,0.992247581,20250904110743611,None,-3703,11.184589385986328,-1,-3,-1,-3,-3,-4,-1,0,1756998463611496925
0,0.992363453,20250904110743611,None,-3703,11.184589385986328,1,-4,-1,0,-2,1,-1,0,1756998463611633777
0,0.993276357,20250904110743612,None,-3703,11.184589385986328,-2,-4,1,-3,-3,1,-1,0,1756998463612214326
0,0.993499279,20250904110743613,None,-3703,11.184589385986328,0,0,0,-2,1,2,0,1,1756998463612371444
0,1.0068295,20250904110743626,None,-3703,8.328949928283691,-5,-3,-2,-5,-3,-3,-4,-1,1756998463625868320
0,1.007143974,20250904110743626,None,-3703,8.328949928283691,-1,-2,-3,-2,1,2,-1,1,1756998463626020908
0,1.014079094,20250904110743633,None,-3703,14.040229797363281,0,0,-1,1,-1,-2,0,-3,1756998463633405685
0,1.014147758,20250904110743633,None,-3703,14.040229797363281,0,-2,0,0,1,-1,-2,-1,1756998463633526563
0,1.021819353,20250904110743641,None,-3703,14.040229797363281,0,1,-2,-1,-2,2,3,3,1756998463641091823
0,1.022340536,20250904110743641,None,-3703,14.040229797363281,1,3,-3,-2,-7,-1,-1,-2,1756998463641296625
0,1.037616491,20250904110743657,None,-3703,14.75413990020752,0,0,0,-4,2,-1,0,1,1756998463656296730
0,1.037886143,20250904110743657,None,-3703,14.75413990020752,-4,-2,-1,1,-1,-2,1,1,1756998463656497478
0,1.045011043,20250904110743664,None,-3703,6.901129722595215,2,0,3,2,1,0,1,1,1756998463663745164
0,1.045141458,20250904110743664,None,-3703,6.901129722595215,-1,-3,-3,-2,-5,-1,2,-1,1756998463663953304
0,1.051769733,20250904110743671,None,-3703,14.278200149536133,1,-3,1,-1,4,-1,1,-1,1756998463671027183
0,1.05184555,20250904110743671,None,-3703,14.278200149536133,-1,-1,-1,0,-1,0,-1,0,1756998463671191692
0,1.06700778,20250904110743686,None,-3703,9.518799781799316,-4,1,-4,-3,-6,0,0,-2,1756998463685875892
0,1.067304134,20250904110743686,None,-3703,9.518799781799316,3,-1,1,-1,1,0,4,1,1756998463686041355
0,1.074179172,20250904110743693,None,-3703,11.660530090332031,1,-4,-4,0,0,0,0,2,1756998463693432807
0,1.074369669,20250904110743693,None,-3703,11.660530090332031,0,-3,0,-2,-4,-3,-7,-3,1756998463693630695
0,1.081672668,20250904110743701,None,-3703,10.708649635314941,-3,-3,0,0,-2,-1,6,1,1756998463700953483
0,1.081794739,20250904110743701,None,-3703,10.708649635314941,-2,-2,0,0,0,-2,1,-3,1756998463701100349
0,1.096704006,20250904110743716,None,-3703,8.804889678955078,-3,-3,1,0,0,-1,-1,-1,1756998463715992212
0,1.096809387,20250904110743716,None,-3703,8.804889678955078,1,0,-2,0,-2,-1,-4,-1,1756998463716130018
0,1.104128361,20250904110743723,None,-3703,14.040229797363281,0,-3,-3,-6,-4,-4,-1,-2,1756998463723283529
0,1.104291439,20250904110743723,None,-3703,14.040229797363281,-3,0,-1,0,1,-1,-4,-4,1756998463723408460
0,1.111412525,20250904110743730,None,-3703,6.901129722595215,-2,-2,-2,-3,-1,-2,-2,-3,1756998463730737686
0,1.111511469,20250904110743731,None,-3703,6.901129722595215,-1,-4,1,3,-1,-2,-2,-4,1756998463730886697
0,1.126892805,20250904110743746,None,-3703,6.6631598472595215,-2,1,0,1,1,-5,-1,-3,1756998463746096611
0,1.127093792,20250904110743746,None,-3703,6.6631598472595215,0,5,1,1,2,1,2,-2,1756998463746370315
0,1.134100914,20250904110743753,None,-3703,6.6631598472595215,0,-3,0,-1,0,0,-4,-1,1756998463753334522
0,1.134299755,20250904110743753,None,-3703,6.6631598472595215,0,3,1,2,10,0,1,-2,1756998463753468751
0,1.141451597,20250904110743760,None,-3703,14.278200149536133,0,2,0,1,-4,-1,-1,2,1756998463760771751
0,1.141545534,20250904110743761,None,-3703,14.278200149536133,-1,-1,-2,1,-4,-1,-3,-1,1756998463760900497
0,1.164596796,20250904110743784,None,-3703,10.946619987487793,3,0,-3,-7,-4,-1,-3,-1,1756998463783896923
0,1.164692402,20250904110743784,None,-3703,10.946619987487793,-3,-5,-2,0,-2,-2,3,0,1756998463784027338
0,1.165314913,20250904110743784,None,-3703,10.946619987487793,-2,-8,-2,-1,2,-1,-1,-2,1756998463784697294
0,1.165398598,20250904110743784,None,-3703,10.946619987487793,-2,1,-1,-4,-1,-1,-5,-5,1756998463784802198
0,1.171575546,20250904110743791,None,-3703,9.04286003112793,-2,3,0,-1,-3,-2,-1,1,1756998463790783405
0,1.171766519,20250904110743791,None,-3703,9.04286003112793,0,-2,-1,-2,0,-1,0,0,1756998463790889263
0,1.186763525,20250904110743806,None,-3703,13.088349342346191,0,2,0,-3,-3,-1,-1,-3,1756998463805974245
0,1.186899185,20250904110743806,None,-3703,13.088349342346191,2,-2,1,0,3,1,0,0,1756998463806112289
0,1.194093704,20250904110743813,None,-3703,7.139100074768066,-3,-1,-1,0,-2,-5,-2,-2,1756998463813423633
0,1.194166422,20250904110743813,None,-3703,7.139100074768066,1,1,-2,-4,-1,-1,1,-5,1756998463813555955
0,1.209184408,20250904110743828,None,-3703,6.6631598472595215,1,-1,2,-3,-2,-1,0,1,1756998463828452348
0,1.209319591,20250904110743828,None,-3703,6.6631598472595215,-1,0,-3,-4,0,1,0,1,1756998463828592538
0,1.217076778,20250904110743836,None,-3703,14.516169548034668,1,-3,-2,-1,-1,-2,-5,1,1756998463836335659
0,1.217196941,20250904110743836,None,-3703,14.516169548034668,0,1,-3,-2,-4,-2,0,-1,1756998463836556196
0,1.224268436,20250904110743843,None,-3703,14.516169548034668,-1,-2,0,-4,-5,1,0,1,1756998463843561887
0,1.224339962,20250904110743843,None,-3703,14.516169548034668,-1,0,-2,4,2,0,-1,0,1756998463843739509
0,1.239459514,20250904110743858,None,-3703,12.136469841003418,-3,0,-1,-3,-1,-3,-4,-2,1756998463858714342
0,1.239573955,20250904110743859,None,-3703,12.136469841003418,-2,1,3,-3,3,5,3,-4,1756998463858919382
0,1.246803999,20250904110743866,None,-3703,10.470680236816406,-1,0,-3,-3,0,-3,-3,-2,1756998463866119384
0,1.246869564,20250904110743866,None,-3703,10.470680236816406,-1,-1,-2,-1,1,0,3,1,1756998463866269588
0,1.254235029,20250904110743873,None,-3703,9.756770133972168,-3,-2,-4,1,-4,-2,-2,-3,1756998463873564004
0,1.254325867,20250904110743873,None,-3703,9.756770133972168,0,-2,0,3,2,-1,-2,1,1756998463873725414
0,1.2701466080000001,20250904110743889,None,-3703,13.326319694519043,-1,-3,-1,0,-2,0,-4,-5,1756998463889283895
0,1.270272493,20250904110743889,None,-3703,13.326319694519043,2,-1,-4,1,-1,-1,3,2,1756998463889562845
0,1.2766480439999999,20250904110743896,None,-3703,7.37706995010376,-1,-2,-1,-1,1,-2,1,1,1756998463895977497
0,1.276740551,20250904110743896,None,-3703,7.37706995010376,-2,-1,-2,-1,-2,-3,-1,4,1756998463896106004
0,1.284040451,20250904110743903,None,-3703,14.516169548034668,-4,-1,-3,0,1,-3,-3,-5,1756998463903381586
0,1.284149408,20250904110743903,None,-3703,14.516169548034668,-1,1,-1,0,0,1,0,3,1756998463903501987
0,1.2994046209999999,20250904110743918,None,-3703,14.75413990020752,0,0,3,-1,-1,0,0,-1,1756998463918384552
0,1.299645185,20250904110743919,None,-3703,14.75413990020752,-3,-3,2,-2,1,-4,-2,-1,1756998463918598175
0,1.306625604,20250904110743926,None,-3703,14.75413990020752,-1,-2,-1,-4,0,-1,-4,-2,1756998463925871133
0,1.306782245,20250904110743926,None,-3703,14.75413990020752,-2,-1,0,-6,-1,-3,-3,2,1756998463926019430
0,1.313954353,20250904110743933,None,-3703,7.615039825439453,-4,0,-1,2,8,1,-2,0,1756998463933253288
0,1.314049482,20250904110743933,None,-3703,7.615039825439453,1,-1,-1,-3,0,2,0,1,1756998463933380365
0,1.329676866,20250904110743949,None,-3703,12.850379943847656,-2,1,1,4,-1,-4,0,-1,1756998463948684215
0,1.3299024099999999,20250904110743949,None,-3703,12.850379943847656,0,-4,0,-4,-1,-1,1,1,1756998463948786258
0,1.337033033,20250904110743956,None,-3703,12.850379943847656,0,2,-3,-1,-3,-2,0,-5,1756998463955810308
0,1.337280989,20250904110743956,None,-3703,12.850379943847656,-2,-2,0,0,1,0,-3,-2,1756998463955873489
0,1.344091654,20250904110743963,None,-3703,8.09097957611084,-1,1,-2,-1,0,0,-2,0,1756998463963290452
0,1.344266653,20250904110743963,None,-3703,8.09097957611084,-1,-1,-2,-3,-1,0,2,1,1756998463963428020
0,1.358986854,20250904110743978,None,-3703,6.425189971923828,-2,0,-1,1,3,-3,-3,0,1756998463978243112
0,1.35909915,20250904110743978,None,-3703,6.425189971923828,-2,0,0,-2,1,-3,1,1,1756998463978361129
0,1.366369963,20250904110743985,None,-3703,14.75413990020752,2,1,1,1,-3,-1,-4,2,1756998463985675334
0,1.36647582,20250904110743985,None,-3703,14.75413990020752,-2,-7,-3,0,-4,-4,-2,-2,1756998463985780239
0,1.373944282,20250904110743993,None,-3703,14.75413990020752,-2,-2,-3,-1,1,0,0,2,1756998463993277072
0,1.374024629,20250904110743993,None,-3703,14.75413990020752,2,0,-2,0,2,-2,-5,0,1756998463993393898
0,1.388987541,20250904110744008,None,-3703,13.326319694519043,-3,-3,-2,-4,-2,-4,-1,-1,1756998464008277416
0,1.38912487,20250904110744008,None,-3703,13.326319694519043,-2,2,0,-4,-5,-4,-1,2,1756998464008384227
0,1.396493196,20250904110744016,None,-3703,9.280829429626465,0,-1,0,6,3,2,-4,0,1756998464015815734
0,1.396578312,20250904110744016,None,-3703,9.280829429626465,0,2,-3,-1,-3,-5,1,-4,1756998464015925645
0,1.403998852,20250904110744023,None,-3703,10.946619987487793,-3,-3,-4,2,-2,-2,-1,-1,1756998464023324012
0,1.40410161,20250904110744023,None,-3703,10.946619987487793,-2,-4,1,3,1,-2,-1,-1,1756998464023436069
0,1.419018745,20250904110744038,None,-3703,11.42255973815918,-2,-7,-2,0,-1,-1,0,0,1756998464038309574
0,1.41913104,20250904110744038,None,-3703,11.42255973815918,-1,-1,0,-1,-2,-1,0,-3,1756998464038443088
0,1.426369905,20250904110744045,None,-3703,8.328949928283691,-1,-4,-4,-1,-2,-1,-1,1,1756998464045682191
0,1.42644906,20250904110744045,None,-3703,8.328949928283691,-1,-4,-2,-2,-2,-3,3,-3,1756998464045807361
0,1.434318781,20250904110744053,None,-3703,14.040229797363281,-5,0,0,3,-1,-1,-5,-3,1756998464053361654
0,1.4346165659999999,20250904110744054,None,-3703,14.040229797363281,-1,1,-1,-1,-2,1,-1,-1,1756998464053505420
0,1.449145317,20250904110744068,None,-3703,6.6631598472595215,3,-1,4,0,-3,0,-1,-1,1756998464068355083
0,1.449280977,20250904110744068,None,-3703,6.6631598472595215,1,-1,0,2,-1,1,-1,-2,1756998464068510055
0,1.456680774,20250904110744076,None,-3703,14.75413990020752,-1,1,1,-1,-1,2,-1,-1,1756998464075913906
0,1.4568450450000001,20250904110744076,None,-3703,14.75413990020752,0,0,-3,-4,-2,0,3,-3,1756998464076056718
0,1.4640440940000001,20250904110744083,None,-3703,7.139100074768066,2,1,-2,2,2,2,2,0,1756998464083331823
0,1.464148283,20250904110744083,None,-3703,7.139100074768066,2,-3,0,-2,1,-2,0,3,1756998464083488464
0,1.478929043,20250904110744098,None,-3703,9.280829429626465,0,-3,-1,4,3,0,-2,-2,1756998464098220348
0,1.479044199,20250904110744098,None,-3703,9.280829429626465,-4,-2,-1,-7,-7,2,0,-1,1756998464098356485
0,1.486463547,20250904110744105,None,-3703,9.280829429626465,-3,-5,-4,-3,-5,-6,-4,-2,1756998464105745077
0,1.486576795,20250904110744106,None,-3703,9.280829429626465,-4,-4,-5,-1,-3,-2,-3,-1,1756998464105865001
0,1.493997812,20250904110744113,None,-3703,11.660530090332031,3,2,-2,1,2,-2,-4,2,1756998464113329648
0,1.494064092,20250904110744113,None,-3703,11.660530090332031,0,0,0,-3,0,2,13,4,1756998464113439083
0,1.509050607,20250904110744128,None,-3703,8.804889678955078,-1,-1,3,-1,4,-1,-3,-2,1756998464128319740
0,1.5091798299999999,20250904110744128,None,-3703,8.804889678955078,-4,-1,-3,2,10,0,-5,-2,1756998464128463506
0,1.516555071,20250904110744136,None,-3703,13.564290046691895,-1,0,1,-3,-4,-1,1,-1,1756998464135849237
0,1.5166487690000001,20250904110744136,None,-3703,13.564290046691895,-3,-2,-4,-3,-3,1,-3,-2,1756998464135960102
0,1.523907661,20250904110744143,None,-3703,6.901129722595215,1,1,-1,-3,-4,-3,0,0,1756998464143255949
0,1.523983478,20250904110744143,None,-3703,6.901129722595215,-2,-1,0,-1,4,-2,1,2,1756998464143360853
0,1.5472300049999999,20250904110744166,None,-3703,6.6631598472595215,3,8,5,2,0,-2,-2,1,1756998464166478395
0,1.547353267,20250904110744166,None,-3703,6.6631598472595215,2,0,-3,2,-2,1,0,1,1756998464166593551
0,1.547910213,20250904110744167,None,-3703,6.6631598472595215,-2,-2,-1,0,-2,-1,-2,-2,1756998464167239904
0,1.547997236,20250904110744167,None,-3703,6.6631598472595215,0,-1,-3,-2,-2,-3,-2,0,1756998464167362213
0,1.553908348,20250904110744173,None,-3703,14.516169548034668,0,-2,-1,1,-1,0,-2,1,1756998464173254251
0,1.553978681,20250904110744173,None,-3703,14.516169548034668,1,-2,0,-2,-3,0,3,0,1756998464173364400
0,1.5689282420000001,20250904110744188,None,-3703,8.804889678955078,-4,-1,1,0,0,1,-2,-3,1756998464188220739
0,1.569046497,20250904110744188,None,-3703,8.804889678955078,-1,-4,1,0,-3,-3,-2,1,1756998464188346862
0,1.576361179,20250904110744195,None,-3703,12.612409591674805,-4,1,-2,-1,-3,0,-1,-2,1756998464195704460
0,1.576443434,20250904110744195,None,-3703,12.612409591674805,1,0,1,0,3,2,0,-3,1756998464195806026
0,1.583936214,20250904110744203,None,-3703,10.946619987487793,0,-3,0,3,1,-1,3,0,1756998464203242301
0,1.5840227599999999,20250904110744203,None,-3703,10.946619987487793,-2,-1,-3,-4,-3,-4,-4,-1,1756998464203355073
0,1.5989775659999999,20250904110744218,None,-3703,13.564290046691895,0,-5,-2,1,0,1,2,-1,1756998464218311786
0,1.599073648,20250904110744218,None,-3703,13.564290046691895,-2,-3,-3,-3,-3,-1,2,3,1756998464218421697
0,1.606479406,20250904110744225,None,-3703,6.901129722595215,-4,-2,1,1,2,-1,-1,-2,1756998464225820779
0,1.606559753,20250904110744226,None,-3703,6.901129722595215,0,0,-2,1,-3,-3,-3,-1,1756998464225925922
0,1.6142070290000001,20250904110744233,None,-3703,6.901129722595215,-2,0,-1,0,-7,-1,-3,-2,1756998464233476638
0,1.614323854,20250904110744233,None,-3703,6.901129722595215,-2,-1,0,-2,-4,0,-1,-1,1756998464233655691
0,1.6293103690000001,20250904110744248,None,-3703,6.425189971923828,1,0,-1,-2,4,0,-2,0,1756998464248493194
0,1.62943387,20250904110744248,None,-3703,6.425189971923828,0,4,-4,-2,0,-1,0,3,1756998464248676300
0,1.636525869,20250904110744256,None,-3703,14.278200149536133,-2,2,-1,0,2,-3,-4,-3,1756998464255810737
0,1.636635542,20250904110744256,None,-3703,14.278200149536133,-2,-1,0,-1,0,-3,-2,-4,1756998464255985975
0,1.643984079,20250904110744263,None,-3703,7.615039825439453,0,-4,-1,1,3,0,-8,-4,1756998464263280391
0,1.644082069,20250904110744263,None,-3703,7.615039825439453,-1,-3,0,0,-2,-2,8,2,1756998464263408184
0,1.659033298,20250904110744278,None,-3703,12.136469841003418,-1,3,-2,-1,0,2,-1,-3,1756998464278315305
0,1.659147501,20250904110744278,None,-3703,12.136469841003418,0,1,-4,-1,3,1,0,1,1756998464278462886
0,1.666596412,20250904110744286,None,-3703,10.232709884643555,-2,1,0,-5,-3,-2,-4,-1,1756998464285881280
0,1.666697979,20250904110744286,None,-3703,10.232709884643555,-3,-2,-3,0,4,-1,0,2,1756998464286015748
0,1.674081325,20250904110744293,None,-3703,9.756770133972168,0,0,-1,0,-1,-3,-4,-1,1756998464293310880
0,1.674247742,20250904110744293,None,-3703,9.756770133972168,-1,0,1,1,-2,0,-1,-1,1756998464293494224
0,1.689125299,20250904110744308,None,-3703,13.088349342346191,-3,-1,-4,-4,2,-1,-3,-4,1756998464308342933
0,1.689276457,20250904110744308,None,-3703,13.088349342346191,3,0,1,-1,-1,1,0,-1,1756998464308510541
0,1.696632385,20250904110744316,None,-3703,7.37706995010376,-1,-1,-3,-1,-2,-2,-5,0,1756998464315844297
0,1.696892023,20250904110744316,None,-3703,7.37706995010376,0,1,0,-4,-5,-6,-2,-2,1756998464316052675
0,1.704071283,20250904110744323,None,-3703,14.516169548034668,-1,-1,0,1,12,-1,3,-3,1756998464323336362
0,1.7043929100000001,20250904110744323,None,-3703,14.516169548034668,-5,-4,1,-1,1,2,1,-2,1756998464323489427
0,1.719597339,20250904110744339,None,-3703,14.278200149536133,-1,1,1,-1,-4,-1,-1,5,1756998464338836193
0,1.719744682,20250904110744339,None,-3703,14.278200149536133,2,-4,-2,-1,-6,0,-3,0,1756998464338990926
0,1.7266895770000001,20250904110744346,None,-3703,7.37706995010376,-2,-3,1,-2,2,1,-1,-6,1756998464345986366
0,1.7268013949999999,20250904110744346,None,-3703,7.37706995010376,1,-2,1,-1,-2,-3,-2,-2,1756998464346134901
0,1.733973265,20250904110744353,None,-3703,7.37706995010376,1,1,2,1,1,-2,0,0,1756998464353281736
0,1.7340631480000002,20250904110744353,None,-3703,7.37706995010376,0,-3,-1,1,-1,0,1,-1,1756998464353415727
0,1.749048948,20250904110744368,None,-3703,9.994739532470703,2,-3,-3,-1,1,0,1,1,1756998464368316173
0,1.749152899,20250904110744368,None,-3703,9.994739532470703,-5,-3,-4,2,1,0,-5,-2,1756998464368463754
0,1.756478309,20250904110744375,None,-3703,10.470680236816406,-1,2,-5,-2,-5,-3,1,-2,1756998464375780344
0,1.7565717699999999,20250904110744376,None,-3703,10.470680236816406,2,-1,1,-1,1,2,4,1,1756998464375920057
0,1.763999224,20250904110744383,None,-3703,12.612409591674805,1,-1,0,1,-3,-1,-2,-1,1756998464383285284
0,1.764108181,20250904110744383,None,-3703,12.612409591674805,-3,-2,-5,-1,-4,-2,-1,0,1756998464383429050
0,1.7790234090000001,20250904110744398,None,-3703,7.8530097007751465,-1,2,-1,-1,1,-1,-1,-3,1756998464398300409
0,1.779117107,20250904110744398,None,-3703,7.8530097007751465,-3,0,1,-2,-1,3,1,1,1756998464398456335
0,1.7866489890000001,20250904110744406,None,-3703,14.75413990020752,-1,0,-1,-1,-2,0,0,-2,1756998464405867338
0,1.7867963310000001,20250904110744406,None,-3703,14.75413990020752,-3,-1,2,2,0,-3,-7,-1,1756998464406014204
0,1.79403758,20250904110744413,None,-3703,6.425189971923828,0,-1,0,0,0,2,9,2,1756998464413320541
0,1.7941522600000002,20250904110744413,None,-3703,6.425189971923828,-1,-1,2,-2,-3,-1,0,-2,1756998464413454771
0,1.809155464,20250904110744428,None,-3703,14.516169548034668,-1,0,-1,4,3,-2,3,3,1756998464428324699
0,1.809324026,20250904110744428,None,-3703,14.516169548034668,-5,-2,-4,-2,-4,-2,-6,-6,1756998464428453683
0,1.81653738,20250904110744436,None,-3703,7.139100074768066,2,3,1,-3,-2,-3,1,1,1756998464435806751
0,1.8166556360000001,20250904110744436,None,-3703,7.139100074768066,0,-3,-5,-1,-1,1,-1,-1,1756998464435936927
0,1.8242814539999999,20250904110744443,None,-3703,12.850379943847656,0,0,0,0,2,-2,-1,0,1756998464443540334
0,1.824424505,20250904110744443,None,-3703,12.850379943847656,1,1,-3,-1,-1,-2,1,-3,1756998464443757534
0,1.839052677,20250904110744458,None,-3703,10.946619987487793,1,2,-2,-1,-2,-1,0,-2,1756998464458340406
0,1.839157581,20250904110744458,None,-3703,10.946619987487793,2,-2,0,2,1,3,0,-1,1756998464458477735
0,1.846636772,20250904110744466,None,-3703,10.946619987487793,-4,-5,-3,-1,-2,-4,-1,-1,1756998464465893030
0,1.846804857,20250904110744466,None,-3703,10.946619987487793,2,2,0,-4,0,-5,2,0,1756998464466028690
0,1.854021787,20250904110744473,None,-3703,11.898499488830566,1,1,-1,-2,0,0,-2,0,1756998464473334074
0,1.854151487,20250904110744473,None,-3703,11.898499488830566,-2,-3,-4,2,2,4,-1,-6,1756998464473469972
0,1.869006634,20250904110744488,None,-3703,14.278200149536133,-2,-6,1,2,-2,-4,0,-3,1756998464488280773
0,1.869133711,20250904110744488,None,-3703,14.278200149536133,2,0,3,1,2,-1,-3,-3,1756998464488417863
0,1.884719133,20250904110744504,None,-3703,14.75413990020752,0,-1,-3,0,-2,-1,0,1,1756998464503989458
0,1.8848593230000001,20250904110744504,None,-3703,14.75413990020752,-2,2,2,-1,10,3,2,-2,1756998464504121780
0,1.8853301999999998,20250904110744504,None,-3703,14.75413990020752,1,1,1,0,-5,0,-3,-2,1756998464504707813
0,1.885429144,20250904110744504,None,-3703,14.75413990020752,-4,-2,0,0,-1,-4,-2,0,1756998464504816532
0,1.898984432,20250904110744518,None,-3703,6.901129722595215,0,-2,1,-5,-1,-1,-3,-3,1756998464518261909
0,1.89912653,20250904110744518,None,-3703,6.901129722595215,0,1,-2,-2,-1,1,-1,2,1756998464518388748
0,1.9064316749999999,20250904110744525,None,-3703,13.80225944519043,-1,1,1,-1,1,-2,0,-2,1756998464525735855
0,1.906536579,20250904110744526,None,-3703,13.80225944519043,0,0,-1,0,-2,-4,2,-3,1756998464525851249
0,1.914226293,20250904110744533,None,-3703,8.328949928283691,-1,-4,1,-3,-1,-1,0,0,1756998464533312797
0,1.914436579,20250904110744533,None,-3703,8.328949928283691,1,-2,3,0,1,1,-1,-3,1756998464533443927
0,1.929249525,20250904110744548,None,-3703,11.184589385986328,-2,-4,-2,3,1,-2,0,-1,1756998464548422098
0,1.929405927,20250904110744548,None,-3703,11.184589385986328,-1,0,0,-3,-3,-4,-1,-4,1756998464548593521
0,1.936598778,20250904110744556,None,-3703,11.184589385986328,-1,0,2,-1,0,0,0,1,1756998464555874824
0,1.9367198939999999,20250904110744556,None,-3703,11.184589385986328,-1,0,-3,2,0,0,-1,-1,1756998464556022644
0,1.951661587,20250904110744571,None,-3703,13.80225944519043,-4,-4,-3,-4,-4,-4,1,0,1756998464570908069
0,1.9518857,20250904110744571,None,-3703,13.80225944519043,-2,2,-2,-4,1,-1,-7,-2,1756998464571039915
0,1.959045172,20250904110744578,None,-3703,6.6631598472595215,-2,2,0,-4,-2,4,9,4,1756998464578348398
0,1.959180832,20250904110744578,None,-3703,6.6631598472595215,-3,-2,-2,5,5,-1,1,-1,1756998464578475236
0,1.966537475,20250904110744586,None,-3703,6.6631598472595215,-2,1,1,-2,-6,-2,-5,-3,1756998464585771560
0,1.966659307,20250904110744586,None,-3703,6.6631598472595215,0,-2,-2,2,-1,2,-2,-2,1756998464585903882
0,1.973859548,20250904110744593,None,-3703,14.516169548034668,1,-2,-4,2,0,-1,-2,2,1756998464593210935
0,1.973938703,20250904110744593,None,-3703,14.516169548034668,0,-3,0,-2,2,2,4,2,1756998464593324184
0,1.997220516,20250904110744616,None,-3703,8.566919326782227,-3,0,-2,-1,-2,0,-4,-2,1756998464616461277
0,1.997354746,20250904110744616,None,-3703,8.566919326782227,-1,-3,-1,0,-1,-1,2,0,1756998464616589546
0,1.997906685,20250904110744617,None,-3703,8.566919326782227,0,-1,-1,0,-3,0,-3,-1,1756998464617257833
0,1.9979841710000001,20250904110744617,None,-3703,8.566919326782227,-2,1,-1,-2,-4,1,-1,1,1756998464617387533
0,2.00395441,20250904110744623,None,-3703,11.660530090332031,-3,-1,-1,0,2,-1,1,-1,1756998464623304367
0,2.004037857,20250904110744623,None,-3703,11.660530090332031,1,-5,-1,0,-2,-2,3,-1,1756998464623424530
0,2.019068956,20250904110744638,None,-3703,10.946619987487793,-4,-1,-1,-1,-1,-4,-4,-3,1756998464638285398
0,2.019213199,20250904110744638,None,-3703,10.946619987487793,-1,-4,0,-3,-1,1,-2,1,1756998464638418197
0,2.026525497,20250904110744646,None,-3703,9.04286003112793,2,-2,-1,-2,0,1,1,-1,1756998464645795106
0,2.026651859,20250904110744646,None,-3703,9.04286003112793,-1,-3,1,-1,-1,0,0,-2,1756998464645944118
0,2.034216642,20250904110744653,None,-3703,13.564290046691895,-1,0,-4,-3,1,-2,-1,0,1756998464653311252
0,2.034338236,20250904110744653,None,-3703,13.564290046691895,0,0,-1,-2,1,-1,-5,-3,1756998464653430223
0,2.049120903,20250904110744668,None,-3703,14.75413990020752,0,0,0,-1,-2,-2,-1,-1,1756998464668293237
0,2.049254179,20250904110744668,None,-3703,14.75413990020752,1,-3,0,0,0,1,-1,0,1756998464668458223
0,2.056867122,20250904110744676,None,-3703,14.75413990020752,-2,0,-4,-3,-2,-3,-1,-2,1756998464676053047
0,2.056926727,20250904110744676,None,-3703,14.75413990020752,0,-1,1,2,4,2,0,-1,1756998464676198720
0,2.064501285,20250904110744684,None,-3703,6.6631598472595215,4,0,-4,-5,-13,-4,3,3,1756998464683566808
0,2.064617634,20250904110744684,None,-3703,6.6631598472595215,-1,-1,0,4,13,1,-1,-1,1756998464683692693
0,2.079222917,20250904110744698,None,-3703,8.328949928283691,0,-1,1,1,3,1,0,-2,1756998464698313236
0,2.079320431,20250904110744698,None,-3703,8.328949928283691,-3,-1,1,-6,-6,-3,-4,-3,1756998464698455095
0,2.086623192,20250904110744706,None,-3703,12.374439239501953,0,0,1,2,-3,1,-4,0,1756998464705749273
0,2.086722612,20250904110744706,None,-3703,12.374439239501953,-1,-4,-4,-1,1,1,0,1,1756998464705881118
0,2.094433784,20250904110744713,None,-3703,12.374439239501953,1,-3,-3,-1,0,-1,2,0,1756998464713412284
0,2.094516277,20250904110744714,None,-3703,12.374439239501953,-4,0,-1,-4,-1,-3,-1,-1,1756998464713580846
0,2.117410421,20250904110744736,None,-3703,13.088349342346191,-1,-2,-3,-3,-1,-1,-1,2,1756998464736480474
0,2.117510319,20250904110744737,None,-3703,13.088349342346191,1,2,0,1,-2,-2,-2,-6,1756998464736607551
0,2.117959738,20250904110744737,None,-3703,13.088349342346191,0,0,-3,0,-1,1,-3,0,1756998464737146854
0,2.11801815,20250904110744737,None,-3703,13.088349342346191,-4,1,-1,-3,1,-3,-3,-2,1756998464737243652
0,2.1318717,20250904110744751,None,-3703,7.139100074768066,1,0,-1,-1,-1,-3,1,-2,1756998464750891447
0,2.132028341,20250904110744751,None,-3703,7.139100074768066,-1,0,-1,-1,-4,-3,-5,-2,1756998464751033544
0,2.139307499,20250904110744758,None,-3703,14.75413990020752,1,1,0,-3,-3,-1,-2,-5,1756998464758319139
0,2.139518261,20250904110744759,None,-3703,14.75413990020752,-3,0,-3,-3,0,0,-2,-4,1756998464758458852
0,2.146809816,20250904110744766,None,-3703,6.901129722595215,1,1,0,2,0,0,-1,-2,1756998464765825510
0,2.146947384,20250904110744766,None,-3703,6.901129722595215,-2,-3,0,-5,-5,-4,0,0,1756998464765965938
0,2.161764145,20250904110744781,None,-3703,7.37706995010376,-2,-2,-4,-3,-2,0,-3,-4,1756998464780898094
0,2.161929607,20250904110744781,None,-3703,7.37706995010376,1,0,-1,5,0,0,-1,1,1756998464781114578
0,2.169030189,20250904110744788,None,-3703,7.37706995010376,-2,-1,0,-3,-4,-1,-2,-3,1756998464788303852
0,2.169127464,20250904110744788,None,-3703,7.37706995010376,-2,-1,-6,-4,-3,-3,-1,-1,1756998464788438081
0,2.176395416,20250904110744795,None,-3703,12.374439239501953,0,-2,-2,1,0,0,0,-1,1756998464795725107
0,2.176549911,20250904110744796,None,-3703,12.374439239501953,-1,0,1,-1,2,1,0,1,1756998464795888185
0,2.191694736,20250904110744811,None,-3703,10.470680236816406,-2,2,-1,0,-2,-3,-1,1,1756998464810929298
0,2.191825628,20250904110744811,None,-3703,10.470680236816406,1,-4,-2,0,0,0,-2,-2,1756998464811072349
0,2.199036121,20250904110744818,None,-3703,12.612409591674805,1,2,-1,0,-1,-1,0,1,1756998464818330049
0,2.199136257,20250904110744818,None,-3703,12.612409591674805,-2,-3,-3,-2,-2,-1,0,0,1756998464818465948
0,2.206512689,20250904110744826,None,-3703,7.37706995010376,0,0,-3,-6,-2,-2,-1,0,1756998464825811862
0,2.206607342,20250904110744826,None,-3703,7.37706995010376,-2,-1,0,-3,1,0,1,2,1756998464825946092
0,2.221347809,20250904110744840,None,-3703,14.516169548034668,0,-2,2,0,-6,-1,-5,-3,1756998464840683698
0,2.221417427,20250904110744840,None,-3703,14.516169548034668,-1,-2,-2,-1,2,2,-3,-3,1756998464840804576
0,2.228943825,20250904110744848,None,-3703,6.425189971923828,-1,-3,-1,3,3,2,1,1,1756998464848248004
0,2.229032993,20250904110744848,None,-3703,6.425189971923828,0,-2,-1,0,1,-3,0,-2,1756998464848397016
0,2.2364773749999998,20250904110744855,None,-3703,14.75413990020752,-1,1,0,-3,-1,-4,1,-1,1756998464855765104
0,2.236557483,20250904110744856,None,-3703,14.75413990020752,0,-1,0,-2,-2,-2,1,1,1756998464855889320
0,2.25198102,20250904110744871,None,-3703,7.139100074768066,-1,2,1,1,3,-2,-1,3,1756998464870937347
0,2.252352238,20250904110744871,None,-3703,7.139100074768066,-2,-7,-1,2,-1,0,1,-3,1756998464871096134
0,2.259063959,20250904110744878,None,-3703,13.088349342346191,-3,-2,-2,-3,-16,-4,-1,-1,1756998464878241777
0,2.259205341,20250904110744878,None,-3703,13.088349342346191,0,-2,-3,-4,9,2,-3,-1,1756998464878358840
0,2.274157286,20250904110744893,None,-3703,10.708649635314941,0,-2,0,0,0,0,1,2,1756998464893346071
0,2.274301767,20250904110744893,None,-3703,10.708649635314941,1,0,-1,3,-1,1,1,-1,1756998464893499612
0,2.281681537,20250904110744901,None,-3703,12.374439239501953,0,-3,0,-4,-4,0,-2,0,1756998464900765419
0,2.281833648,20250904110744901,None,-3703,12.374439239501953,2,2,-3,-1,-8,-2,1,1,1756998464900884151
0,2.289250612,20250904110744908,None,-3703,12.374439239501953,-2,-2,-3,-2,-3,1,-3,-1,1756998464908322334
0,2.28935647,20250904110744908,None,-3703,12.374439239501953,-1,-2,1,3,2,1,-2,-3,1756998464908466577
0,2.296661138,20250904110744916,None,-3703,8.328949928283691,0,-1,-1,-2,0,1,1,0,1756998464915749073
0,2.296764374,20250904110744916,None,-3703,8.328949928283691,-4,1,2,-1,0,-2,0,1,1756998464915874958
0,2.311891317,20250904110744931,None,-3703,6.6631598472595215,0,-5,-4,-2,0,-2,-1,-2,1756998464930881500
0,2.312062025,20250904110744931,None,-3703,6.6631598472595215,-1,1,0,0,0,0,-3,1,1756998464931154966
0,2.32749033,20250904110744947,None,-3703,6.901129722595215,1,0,1,-1,0,-1,-4,-2,1756998464946641445
0,2.327628135,20250904110744947,None,-3703,6.901129722595215,-1,-1,0,-1,1,2,6,1,1756998464946829795
0,2.327964783,20250904110744947,None,-3703,6.901129722595215,-1,0,-1,2,-2,0,0,0,1756998464947266817
0,2.32809782,20250904110744947,None,-3703,6.901129722595215,0,1,-1,0,-3,-2,-3,0,1756998464947387695
0,2.341606617,20250904110744961,None,-3703,13.80225944519043,1,1,1,1,-1,1,2,2,1756998464960895776
0,2.34176445,20250904110744961,None,-3703,13.80225944519043,0,0,-2,-1,-2,-2,-3,-5,1756998464961016654
0,2.3491292,20250904110744968,None,-3703,9.280829429626465,1,-1,-1,2,2,0,-2,-1,1756998464968411684
0,2.349272489,20250904110744968,None,-3703,9.280829429626465,2,-2,3,0,3,0,0,-1,1756998464968561887
0,2.356556654,20250904110744976,None,-3703,11.42255973815918,-1,-4,-2,-3,-4,-4,-4,-5,1756998464975856304
0,2.356672525,20250904110744976,None,-3703,11.42255973815918,-4,-1,0,1,-1,-1,1,2,1756998464975967645
0,2.371432304,20250904110744990,None,-3703,11.660530090332031,2,2,-2,-1,-1,-1,2,2,1756998464990756750
0,2.371609211,20250904110744991,None,-3703,8.566919326782227,-1,0,-1,-1,1,-5,-5,-2,1756998464990867137
0,2.379041433,20250904110744998,None,-3703,8.566919326782227,-3,1,-1,-3,-3,-5,-4,-4,1756998464998358011
0,2.3792274,20250904110744998,None,-3703,8.566919326782227,0,-1,-1,1,2,0,1,1,1756998464998557090
0,2.386480093,20250904110745005,None,-3703,14.040229797363281,-1,0,-5,-1,-4,-3,-2,-2,1756998465005780220
0,2.386566162,20250904110745006,None,-3703,14.040229797363281,3,1,1,4,1,-3,-2,3,1756998465005906581
0,2.401881456,20250904110745021,None,-3703,6.6631598472595215,-1,-2,1,4,1,-1,0,-3,1756998465020916223
0,2.402139902,20250904110745021,None,-3703,6.6631598472595215,-1,-1,-1,1,2,0,2,0,1756998465021053791
0,2.409008026,20250904110745028,None,-3703,6.901129722595215,0,1,0,-4,3,-1,2,1,1756998465028291702
0,2.409134626,20250904110745028,None,-3703,6.901129722595215,-3,-1,3,-4,-2,0,-1,2,1756998465028409957
0,2.416572571,20250904110745036,None,-3703,6.901129722595215,0,-1,-6,1,2,0,-1,-3,1756998465035872697
0,2.416658878,20250904110745036,None,-3703,6.901129722595215,-2,-1,0,1,2,2,0,-1,1756998465035993337
0,2.43179059,20250904110745051,None,-3703,8.804889678955078,0,5,-1,-3,-1,-4,0,4,1756998465050989866
0,2.431903362,20250904110745051,None,-3703,8.804889678955078,-3,-2,0,0,-1,-1,-5,-2,1756998465051178693
0,2.439236402,20250904110745058,None,-3703,12.374439239501953,2,-3,-5,1,-1,0,1,-1,1756998465058512449
0,2.439311981,20250904110745058,None,-3703,12.374439239501953,2,4,1,-1,3,-2,2,3,1756998465058697462
0,2.446694851,20250904110745066,None,-3703,10.708649635314941,-1,-3,-1,-1,1,-1,-4,-2,1756998465065950632
0,2.446801901,20250904110745066,None,-3703,10.708649635314941,-3,-4,-1,-1,-7,-1,0,1,1756998465066139221
0,2.461796045,20250904110745081,None,-3703,9.280829429626465,1,0,0,0,0,1,-2,0,1756998465081015110
0,2.461920976,20250904110745081,None,-3703,9.280829429626465,-4,1,0,-3,-2,2,-2,-6,1756998465081169843
0,2.46926403,20250904110745088,None,-3703,13.80225944519043,-1,0,1,-4,-13,-3,-1,0,1756998465088519334
0,2.469401598,20250904110745088,None,-3703,13.80225944519043,-1,0,3,-2,10,0,3,0,1756998465088678359
0,2.476756334,20250904110745096,None,-3703,7.139100074768066,-1,0,-1,1,2,2,-4,-1,1756998465095975637
0,2.476880312,20250904110745096,None,-3703,7.139100074768066,-1,2,-1,2,1,2,2,3,1756998465096121072
0,2.49155426,20250904110745111,None,-3703,6.6631598472595215,-2,-3,1,0,1,-3,-3,1,1756998465110850811
0,2.49166131,20250904110745111,None,-3703,6.6631598472595215,-1,-1,0,1,-1,-2,-6,-1,1756998465110988616
0,2.499131203,20250904110745118,None,-3703,6.6631598472595215,-3,-2,-3,-4,-2,0,6,2,1756998465118424654
0,2.499251842,20250904110745118,None,-3703,6.6631598472595215,1,-2,0,-4,-5,1,2,1,1756998465118558406
0,2.506572485,20250904110745126,None,-3703,14.278200149536133,-3,-3,-2,-5,-5,-3,1,-1,1756998465125887155
0,2.506668091,20250904110745126,None,-3703,14.278200149536133,1,-3,-2,1,1,-2,-7,-1,1756998465126004695
0,2.521818399,20250904110745141,None,-3703,12.612409591674805,1,0,-1,2,1,-3,1,1,1756998465140893936
0,2.521974563,20250904110745141,None,-3703,12.612409591674805,0,1,-2,-1,-2,-2,-3,-2,1756998465141042947
0,2.528911114,20250904110745148,None,-3703,10.708649635314941,-1,-1,-1,0,-2,1,-1,-2,1756998465148259878
0,2.5289771549999998,20250904110745148,None,-3703,10.708649635314941,-4,-1,0,0,1,-1,-4,-2,1756998465148370027
0,2.53653121,20250904110745156,None,-3703,10.708649635314941,-2,1,1,-1,1,-1,-1,-3,1756998465155857324
0,2.5366196629999997,20250904110745156,None,-3703,10.708649635314941,0,-2,2,1,0,0,0,2,1756998465155998706
0,2.551648617,20250904110745171,None,-3703,13.326319694519043,-1,1,-2,-2,-2,-4,-1,0,1756998465170860052
0,2.551803589,20250904110745171,None,-3703,13.326319694519043,1,1,-1,0,-3,1,-1,-1,1756998465171058177
0,2.559000253,20250904110745178,None,-3703,6.901129722595215,-2,-1,-2,2,1,-1,3,0,1756998465178293704
0,2.559115171,20250904110745178,None,-3703,6.901129722595215,-6,-3,1,3,-2,1,-2,-2,1756998465178404092
0,2.566539287,20250904110745186,None,-3703,14.516169548034668,-3,0,-1,-1,-5,-5,-2,-1,1756998465185796260
0,2.5666501520000002,20250904110745186,None,-3703,14.516169548034668,0,-1,-2,0,2,2,0,-1,1756998465185936212
0,2.581590652,20250904110745201,None,-3703,6.6631598472595215,0,0,0,-2,-1,0,-1,2,1756998465200882673
0,2.581693649,20250904110745201,None,-3703,6.6631598472595215,-2,1,0,-3,-1,-3,2,1,1756998465201027393
0,2.589015961,20250904110745208,None,-3703,14.516169548034668,-1,-3,-4,-1,-3,-4,-2,-1,1756998465208317995
0,2.589128494,20250904110745208,None,-3703,14.516169548034668,1,-1,0,-1,0,-4,1,2,1756998465208436250
0,2.604221105,20250904110745223,None,-3703,12.850379943847656,-2,-4,-2,0,-1,-2,-5,-4,1756998465223366737
0,2.604402065,20250904110745223,None,-3703,12.850379943847656,-2,-2,-1,-3,0,0,-4,-3,1756998465223538160
0,2.6115946770000003,20250904110745231,None,-3703,12.850379943847656,-2,-1,0,-3,-3,-2,-5,0,1756998465230839967
0,2.611754417,20250904110745231,None,-3703,12.850379943847656,1,0,3,1,0,-3,1,-1,1756998465231003284
0,2.619050503,20250904110745238,None,-3703,10.232709884643555,-2,1,0,-2,2,0,-3,-5,1756998465238287925
0,2.619147062,20250904110745238,None,-3703,10.232709884643555,-1,-1,-5,-2,-1,2,-2,-1,1756998465238431692
0,2.62650752,20250904110745246,None,-3703,10.470680236816406,0,-6,-2,-5,-2,0,1,0,1756998465245786190
0,2.626634598,20250904110745246,None,-3703,10.470680236816406,-1,0,1,-2,1,-2,-2,-1,1756998465245922803
0,2.641571998,20250904110745261,None,-3703,7.37706995010376,-4,-3,-2,-6,-2,-2,-3,2,1756998465260870456
0,2.6417174340000003,20250904110745261,None,-3703,7.37706995010376,-2,2,-1,1,2,-1,-1,-1,1756998465260992050
0,2.657323122,20250904110745276,None,-3703,14.516169548034668,1,-4,0,1,2,2,-3,-2,1756998465276472330
0,2.657624245,20250904110745277,None,-3703,14.516169548034668,1,9,2,-1,-1,-1,4,-3,1756998465276592731
0,2.657990455,20250904110745277,None,-3703,14.516169548034668,2,0,0,1,-2,-4,-1,-2,1756998465277294158
0,2.658098459,20250904110745277,None,-3703,14.516169548034668,-1,-1,0,-1,-10,0,0,-2,1756998465277474164
0,2.671485901,20250904110745291,None,-3703,14.516169548034668,-3,-3,-3,0,10,3,-1,-2,1756998465290755748
0,2.671572447,20250904110745291,None,-3703,14.516169548034668,-3,2,-1,1,0,-1,-2,1,1756998465290892839
0,2.679051637,20250904110745298,None,-3703,7.139100074768066,0,-2,-2,-1,-4,-1,-3,-1,1756998465298333644
0,2.679152489,20250904110745298,None,-3703,7.139100074768066,-1,1,2,1,-5,3,5,0,1756998465298475980
0,2.6863799090000002,20250904110745305,None,-3703,7.139100074768066,0,1,1,-1,-3,-3,-2,-1,1756998465305717229
0,2.686450481,20250904110745305,None,-3703,7.139100074768066,-1,-2,-1,-1,1,1,-6,-2,1756998465305835485
0,2.7019362449999997,20250904110745321,None,-3703,9.756770133972168,0,0,-3,-4,3,0,-2,-1,1756998465320906639
0,2.702196836,20250904110745321,None,-3703,9.756770133972168,-2,-4,-3,-3,-4,0,-1,-4,1756998465321088075
0,2.709138632,20250904110745328,None,-3703,10.470680236816406,0,-1,0,0,1,0,1,0,1756998465328253984
0,2.709309816,20250904110745328,None,-3703,10.470680236816406,1,4,-2,2,-2,-4,0,-3,1756998465328358888
0,2.716715574,20250904110745336,None,-3703,12.374439239501953,-4,-3,-1,-3,-3,-3,-1,1,1756998465335755109
0,2.716918707,20250904110745336,None,-3703,12.374439239501953,1,-2,2,1,-2,-1,-3,-2,1756998465335871458
0,2.731751203,20250904110745351,None,-3703,7.8530097007751465,2,0,0,-1,-3,-1,1,0,1756998465350812911
0,2.731960058,20250904110745351,None,-3703,7.8530097007751465,0,1,-2,1,-1,1,2,0,1756998465350959062
0,2.739152908,20250904110745358,None,-3703,14.278200149536133,-2,-3,1,0,-2,-3,1,0,1756998465358205080
0,2.7393481729999998,20250904110745358,None,-3703,14.278200149536133,1,-3,-3,-2,0,-1,1,-3,1756998465358336210
0,2.746807098,20250904110745366,None,-3703,6.425189971923828,-1,-1,-2,1,-1,1,1,0,1756998465365771293
0,2.746994018,20250904110745366,None,-3703,6.425189971923828,3,2,-1,2,-2,-3,-2,0,1756998465365930318
0,2.769978046,20250904110745389,None,-3703,13.564290046691895,0,-2,-3,1,3,1,-5,0,1756998465388947010
0,2.7701778409999998,20250904110745389,None,-3703,13.564290046691895,-1,0,1,0,0,3,1,1,1756998465389071464
0,2.770717621,20250904110745390,None,-3703,13.564290046691895,-1,2,-3,-4,-5,0,-2,-2,1756998465389737367
0,2.770943403,20250904110745390,None,-3703,13.564290046691895,0,1,-1,-2,-2,-4,-4,2,1756998465389844655
0,2.776628256,20250904110745396,None,-3703,13.564290046691895,-2,2,-2,-1,0,-2,0,-1,1756998465395704030
0,2.776852131,20250904110745396,None,-3703,13.564290046691895,-1,-2,0,1,2,0,1,2,1756998465395808935
0,2.791869879,20250904110745411,None,-3703,11.42255973815918,0,0,1,-5,-3,-2,-5,-2,1756998465410867691
0,2.792076587,20250904110745411,None,-3703,11.42255973815918,-2,2,-3,-2,0,1,-1,1,1756998465410996437
0,2.799267053,20250904110745418,None,-3703,11.184589385986328,-3,-1,-4,4,3,-1,-1,-3,1756998465418322801
0,2.79943943,20250904110745418,None,-3703,11.184589385986328,-2,2,-1,3,1,1,-1,0,1756998465418449878
0,2.807039499,20250904110745426,None,-3703,8.328949928283691,0,-1,-1,-2,0,-1,-2,-2,1756998465426034450
0,2.807217121,20250904110745426,None,-3703,8.328949928283691,1,-2,-4,-3,-1,0,1,0,1756998465426192522
0,2.821897983,20250904110745441,None,-3703,14.516169548034668,-2,-1,0,2,0,2,-1,-1,1756998465440843343
0,2.822080612,20250904110745441,None,-3703,14.516169548034668,-1,1,0,1,3,0,1,-2,1756998465440981864
0,2.82911849,20250904110745448,None,-3703,6.901129722595215,-1,-5,-3,-4,-4,-5,-2,-1,1756998465448406934
0,2.829234838,20250904110745448,None,-3703,6.901129722595215,-2,-3,1,-3,-1,2,-3,1,1756998465448531389
0,2.836590528,20250904110745456,None,-3703,14.75413990020752,-2,-1,-3,0,0,-1,-6,-6,1756998465455876350
0,2.8366889950000003,20250904110745456,None,-3703,14.75413990020752,1,1,-2,0,-1,-1,4,3,1756998465456007957
0,2.851998091,20250904110745471,None,-3703,6.6631598472595215,1,-1,0,-2,-4,-3,-1,0,1756998465470944404
0,2.852534771,20250904110745472,None,-3703,13.80225944519043,2,0,0,2,3,-1,-6,0,1756998465471096038
0,2.859270334,20250904110745478,None,-3703,13.80225944519043,-1,-4,-1,-4,0,-3,-2,0,1756998465478317260
0,2.859524488,20250904110745479,None,-3703,13.80225944519043,-1,4,1,1,-1,-1,1,-4,1756998465478442907
0,2.866845846,20250904110745486,None,-3703,9.04286003112793,-1,-2,-4,-1,1,-1,-2,-4,1756998465485863208
0,2.867018223,20250904110745486,None,-3703,9.04286003112793,2,-1,0,-2,-16,-2,2,3,1756998465485988140
0,2.881878137,20250904110745501,None,-3703,11.184589385986328,-4,2,-2,-5,8,-1,-3,-1,1756998465500820636
0,2.882078409,20250904110745501,None,-3703,11.184589385986328,0,-1,-2,0,3,0,-1,-3,1756998465500983953
0,2.889081001,20250904110745508,None,-3703,8.804889678955078,1,1,3,0,-5,-1,1,2,1756998465508364915
0,2.88918066,20250904110745508,None,-3703,8.804889678955078,-3,-3,-2,3,1,-1,-1,0,1756998465508546113
0,2.896448612,20250904110745515,None,-3703,8.804889678955078,-4,0,-2,0,-1,-1,0,-2,1756998465515715599
0,2.896565676,20250904110745516,None,-3703,8.804889678955078,1,-1,-2,2,1,-1,1,2,1756998465515831708
0,2.911599636,20250904110745531,None,-3703,6.901129722595215,-2,-3,0,2,1,-3,0,-2,1756998465530874252
0,2.91176033,20250904110745531,None,-3703,6.901129722595215,-1,-2,1,-2,-3,-3,0,1,1756998465530999660
0,2.918950796,20250904110745538,None,-3703,14.75413990020752,1,0,2,0,-1,-1,0,2,1756998465538303375
0,2.919047832,20250904110745538,None,-3703,14.75413990020752,-1,-1,-3,2,4,-2,0,-1,1756998465538415908
0,2.93393588,20250904110745553,None,-3703,6.425189971923828,-3,1,-1,-2,-5,-4,0,0,1756998465553208351
0,2.934048652,20250904110745553,None,-3703,6.425189971923828,-1,-3,1,0,-3,2,0,0,1756998465553336858
0,2.941414118,20250904110745560,None,-3703,14.516169548034668,0,2,2,3,1,2,2,-2,1756998465560759305
0,2.94151783,20250904110745561,None,-3703,14.516169548034668,-2,-3,-1,-2,1,-1,-1,0,1756998465560863494
0,2.949121952,20250904110745568,None,-3703,8.566919326782227,0,2,1,-4,-2,-1,-1,-1,1756998465568417310
0,2.949254036,20250904110745568,None,-3703,8.566919326782227,-6,-3,-1,-2,-3,-4,-1,-3,1756998465568548440
0,2.9565715790000002,20250904110745576,None,-3703,11.898499488830566,-1,-1,3,0,3,0,-1,1,1756998465575855970
0,2.956684589,20250904110745576,None,-3703,11.898499488830566,2,-1,-1,-5,-6,-1,3,2,1756998465575967073
0,2.971770286,20250904110745591,None,-3703,9.756770133972168,-1,1,-3,0,2,0,0,-3,1756998465590944051
0,2.971926689,20250904110745591,None,-3703,9.756770133972168,-2,-4,-2,-1,-2,-3,-4,-5,1756998465591101884
0,2.9789793490000003,20250904110745598,None,-3703,9.756770133972168,0,0,0,0,-1,0,-2,1,1756998465598270416
0,2.97909975,20250904110745598,None,-3703,9.756770133972168,0,-2,0,2,-3,0,4,1,1756998465598381519
0,2.9866592880000002,20250904110745606,None,-3703,13.564290046691895,2,1,-1,0,1,4,1,3,1756998465605896949
0,2.986814737,20250904110745606,None,-3703,13.564290046691895,-2,-3,0,2,-1,-4,-1,-2,1756998465606013774
0,3.001634121,20250904110745621,None,-3703,14.75413990020752,-1,0,-2,-3,-1,-2,0,1,1756998465620872497
0,3.001790762,20250904110745621,None,-3703,14.75413990020752,-1,-2,-2,0,-1,2,-3,0,1756998465621000051
0,3.009059429,20250904110745628,None,-3703,6.6631598472595215,-4,1,0,-3,-1,-2,-2,-2,1756998465628378391
0,3.009205818,20250904110745628,None,-3703,6.6631598472595215,1,-3,1,1,2,1,1,-1,1756998465628491878
0,3.024034262,20250904110745643,None,-3703,14.278200149536133,-1,-2,-2,1,-3,-1,-2,-3,1756998465643317461
0,3.024177074,20250904110745643,None,-3703,14.278200149536133,-1,2,0,-1,-2,-1,-1,0,1756998465643436908
0,3.031853676,20250904110745651,None,-3703,8.09097957611084,-2,-2,-3,-1,-2,-3,-2,-2,1756998465651042461
0,3.032038927,20250904110745651,None,-3703,8.09097957611084,0,-3,0,-3,-3,3,3,0,1756998465651222944
0,3.039168834,20250904110745658,None,-3703,12.374439239501953,-4,-3,1,-1,4,1,1,-2,1756998465658454179
0,3.039297819,20250904110745658,None,-3703,12.374439239501953,-2,0,2,-1,-1,-4,-2,1,1756998465658600807
0,3.046710968,20250904110745666,None,-3703,10.232709884643555,1,0,-1,-5,-1,-1,-1,-2,1756998465665945053
0,3.04688406,20250904110745666,None,-3703,10.232709884643555,0,0,1,-3,-3,0,-1,1,1756998465666127443
0,3.061920643,20250904110745681,None,-3703,9.994739532470703,-4,-4,1,-2,3,-2,1,1,1756998465681045532
0,3.062106132,20250904110745681,None,-3703,9.994739532470703,-1,-1,-4,-5,-1,0,-3,-3,1756998465681199073
0,3.069029808,20250904110745688,None,-3703,13.088349342346191,-3,0,-1,0,-6,-2,0,0,1756998465688349008
0,3.069126844,20250904110745688,None,-3703,13.088349342346191,-1,5,5,3,-6,-2,0,1,1756998465688481569
0,3.084307194,20250904110745703,None,-3703,14.992109298706055,0,-3,-3,0,13,0,4,1,1756998465703556060
0,3.084440231,20250904110745703,None,-3703,14.992109298706055,-1,-1,-2,4,-1,1,-2,-1,1756998465703732490
0,3.091606378,20250904110745711,None,-3703,14.992109298706055,1,1,-1,-3,-5,-3,1,-3,1756998465710908174
0,3.091712475,20250904110745711,None,-3703,14.992109298706055,1,2,-2,-3,-3,-2,-1,1,1756998465711049556
0,3.106581688,20250904110745726,None,-3703,14.75413990020752,-1,-2,2,0,-2,0,-1,-2,1756998465725846529
0,3.106684208,20250904110745726,None,-3703,14.75413990020752,-1,-2,0,-3,-2,-1,0,-1,1756998465726003885
0,3.113996029,20250904110745733,None,-3703,7.37706995010376,1,0,2,4,5,1,0,2,1756998465733314275
0,3.114114284,20250904110745733,None,-3703,7.37706995010376,-2,0,0,0,-3,-1,-2,2,1756998465733444213
0,3.12146163,20250904110745740,None,-3703,13.088349342346191,0,0,-2,-3,-1,0,0,-3,1756998465740795850
0,3.121552229,20250904110745741,None,-3703,13.088349342346191,-2,3,0,4,2,-2,3,1,1756998465740914583
0,3.129125356,20250904110745748,None,-3703,13.088349342346191,0,1,0,-1,-2,0,-3,0,1756998465748372077
0,3.129234552,20250904110745748,None,-3703,13.088349342346191,0,1,0,-1,-1,-3,-3,0,1756998465748534679
0,3.144005537,20250904110745763,None,-3703,10.708649635314941,-1,-3,0,1,-3,-2,-1,0,1756998465763329982
0,3.144105673,20250904110745763,None,-3703,10.708649635314941,0,0,-2,1,-4,0,2,-1,1756998465763462305
0,3.151468277,20250904110745770,None,-3703,11.660530090332031,-3,-2,1,-5,0,-2,2,0,1756998465770788908
0,3.151555776,20250904110745771,None,-3703,11.660530090332031,0,3,0,0,1,2,4,-2,1756998465770912408
0,3.158993721,20250904110745778,None,-3703,7.37706995010376,0,-3,-2,2,-2,-3,-2,-4,1756998465778342962
0,3.159082651,20250904110745778,None,-3703,7.37706995010376,-3,-2,0,-1,-3,0,-2,-2,1756998465778464794
0,3.174055338,20250904110745793,None,-3703,14.516169548034668,-1,0,-4,-4,-3,-3,0,-1,1756998465793345451
0,3.174158096,20250904110745793,None,-3703,14.516169548034668,-1,-2,-1,0,-1,-2,2,1,1756998465793490409
0,3.181503534,20250904110745801,None,-3703,6.6631598472595215,-1,-1,-3,-1,-1,-1,-2,-3,1756998465800808429
0,3.181700229,20250904110745801,None,-3703,6.6631598472595215,-2,-4,-1,1,-1,-4,-5,-5,1756998465801018476
0,3.188958406,20250904110745808,None,-3703,14.516169548034668,-2,0,2,-1,1,-2,2,1,1756998465808300971
0,3.189055204,20250904110745808,None,-3703,14.516169548034668,1,1,1,1,3,-1,-3,0,1756998465808425664
0,3.204040766,20250904110745823,None,-3703,13.088349342346191,-1,-4,-2,-2,-5,0,0,2,1756998465823343276
0,3.20413208,20250904110745823,None,-3703,13.088349342346191,1,-1,1,-7,-4,-1,0,1,1756998465823476552
0,3.211541652,20250904110745831,None,-3703,9.518799781799316,-2,0,0,3,0,2,1,-2,1756998465830876111
0,3.211637735,20250904110745831,None,-3703,9.518799781799316,-5,3,-3,1,-2,-2,-2,1,1756998465830987215
0,3.218787432,20250904110745838,None,-3703,9.518799781799316,3,-1,-2,1,0,2,5,2,1756998465838173389
0,3.2188344,20250904110745838,None,-3703,9.518799781799316,-1,-1,-1,-4,-2,-5,-5,-2,1756998465838241577
0,3.2339980600000002,20250904110745853,None,-3703,11.898499488830566,-2,-2,-1,-3,-4,-3,0,3,1756998465853281736
0,3.234117031,20250904110745853,None,-3703,11.898499488830566,0,9,3,1,0,2,-2,1,1756998465853410959
0,3.241452932,20250904110745860,None,-3703,8.328949928283691,1,0,-1,1,1,1,2,0,1756998465860781431
0,3.241544962,20250904110745861,None,-3703,8.328949928283691,1,1,-2,0,-3,0,-1,0,1756998465860904216
0,3.249025345,20250904110745868,None,-3703,13.80225944519043,-1,0,-1,-5,-1,-3,2,1,1756998465868314027
0,3.249126911,20250904110745868,None,-3703,13.80225944519043,-1,-5,-2,0,3,-2,-3,-4,1756998465868453264
0,3.264002323,20250904110745883,None,-3703,6.6631598472595215,0,0,0,0,-1,-2,-3,-1,1756998465883301258
0,3.26410532,20250904110745883,None,-3703,6.6631598472595215,1,-2,3,-2,-1,-2,-2,0,1756998465883416175
0,3.2716891759999998,20250904110745891,None,-3703,14.75413990020752,-2,-4,0,0,-2,2,1,2,1756998465890963554
0,3.271819114,20250904110745891,None,-3703,14.75413990020752,-2,-4,-2,-4,-8,-1,-2,1,1756998465891152381
0,3.279068947,20250904110745898,None,-3703,7.139100074768066,1,1,0,0,8,0,3,3,1756998465898355722
0,3.279175281,20250904110745898,None,-3703,7.139100074768066,1,2,-2,2,2,1,-5,-4,1756998465898500442
0,3.293936968,20250904110745913,None,-3703,9.04286003112793,2,1,0,-2,-7,1,-2,0,1756998465913272857
0,3.294024467,20250904110745913,None,-3703,9.04286003112793,0,2,1,-1,-4,-4,2,0,1756998465913404941
0,3.301617384,20250904110745921,None,-3703,9.04286003112793,-3,0,-5,5,-2,0,0,0,1756998465920812129
0,3.301793575,20250904110745921,None,-3703,9.04286003112793,0,-2,1,-1,3,-1,1,2,1756998465920944690
0,3.308802843,20250904110745928,None,-3703,11.42255973815918,2,0,-1,2,-5,-5,1,-1,1756998465928145408
0,3.308901787,20250904110745928,None,-3703,11.42255973815918,-4,-4,-2,-1,-1,-1,-8,-3,1756998465928302526
0,3.324175834,20250904110745943,None,-3703,8.328949928283691,-1,2,0,-3,-6,-2,0,1,1756998465943380832
0,3.324308634,20250904110745943,None,-3703,8.328949928283691,2,1,2,6,5,1,-3,-2,1756998465943573713
0,3.331607342,20250904110745951,None,-3703,14.040229797363281,0,1,2,-2,-1,1,-2,-1,1756998465950891017
0,3.33174634,20250904110745951,None,-3703,14.040229797363281,-4,1,-1,0,-1,0,-2,1,1756998465951054096
0,3.339002132,20250904110745958,None,-3703,14.040229797363281,-1,-1,-3,-2,0,-3,1,2,1756998465958308696
0,3.339081526,20250904110745958,None,-3703,14.040229797363281,-3,0,-2,-3,-1,-1,-6,-4,1756998465958427429
0,3.354043245,20250904110745973,None,-3703,14.992109298706055,-2,-1,-2,-2,1,-5,-2,0,1756998465973330736
0,3.354167223,20250904110745973,None,-3703,14.992109298706055,-1,-2,-1,-1,-4,-1,0,-1,1756998465973457574
0,3.361577749,20250904110745981,None,-3703,6.901129722595215,0,3,-2,-3,-2,3,2,0,1756998465980842828
0,3.361697912,20250904110745981,None,-3703,6.901129722595215,1,-1,2,2,1,-1,0,0,1756998465980981349
0,3.368978739,20250904110745988,None,-3703,14.040229797363281,-2,0,-1,1,1,-1,1,-1,1756998465988300800
0,3.369069338,20250904110745988,None,-3703,14.040229797363281,-3,2,1,0,-3,-1,-2,0,1756998465988426685
0,3.384473324,20250904110746004,None,-3703,11.42255973815918,1,0,-3,0,1,-2,-6,-2,1756998466003702163
0,3.384634018,20250904110746004,None,-3703,11.42255973815918,-2,-2,-3,-1,-6,-2,-1,-2,1756998466003833770
0,3.391581297,20250904110746011,None,-3703,9.994739532470703,-2,-4,2,5,7,3,2,0,1756998466010895729
0,3.391675234,20250904110746011,None,-3703,9.994739532470703,1,0,2,0,-1,-3,-2,-3,1756998466011009454
0,3.399069309,20250904110746018,None,-3703,13.326319694519043,-1,-2,-5,-1,-5,-2,-2,3,1756998466018340587
0,3.39922142,20250904110746018,None,-3703,13.326319694519043,2,2,-1,-1,0,-1,-2,-1,1756998466018463373
0,3.41408968,20250904110746033,None,-3703,7.139100074768066,0,0,2,1,1,0,1,-3,1756998466033326387
0,3.414286852,20250904110746033,None,-3703,7.139100074768066,-1,-2,-7,-3,-1,-4,-1,-4,1756998466033466815
0,3.4214725489999998,20250904110746041,None,-3703,14.75413990020752,-6,-4,1,1,-1,-3,-2,-1,1756998466040724277
0,3.421717882,20250904110746041,None,-3703,14.75413990020752,-1,-2,-1,3,1,-4,3,0,1756998466040993928
0,3.437175035,20250904110746056,None,-3703,14.516169548034668,-3,-1,1,-3,-4,-1,-2,-1,1756998466056359529
0,3.437354088,20250904110746056,None,-3703,14.516169548034668,0,-1,-1,-4,-3,1,-1,1,1756998466056556701
0,3.444140672,20250904110746063,None,-3703,14.516169548034668,-2,-3,1,1,2,2,-4,-3,1756998466063362836
0,3.444312334,20250904110746063,None,-3703,14.516169548034668,-2,-4,0,-1,1,-4,-2,0,1756998466063553094
0,3.451644182,20250904110746071,None,-3703,8.09097957611084,0,-3,-4,1,-4,-2,-3,0,1756998466070917606
0,3.451877355,20250904110746071,None,-3703,8.09097957611084,0,-2,0,-4,-17,-7,1,-2,1756998466071091890
0,3.458991766,20250904110746078,None,-3703,12.374439239501953,0,5,0,2,8,2,1,-1,1756998466078319549
0,3.459086895,20250904110746078,None,-3703,12.374439239501953,1,-3,3,2,3,0,0,-3,1756998466078447341
0,3.474062204,20250904110746093,None,-3703,9.994739532470703,-2,-1,-1,-4,-3,-3,-3,1,1756998466093340158
0,3.474181413,20250904110746093,None,-3703,9.994739532470703,-1,-4,3,0,-2,-1,-1,2,1756998466093484878
0,3.481490373,20250904110746101,None,-3703,9.994739532470703,-7,-5,-3,-5,-3,-2,0,-1,1756998466100814104
0,3.481641292,20250904110746101,None,-3703,12.850379943847656,2,2,-2,-1,-3,1,-2,3,1756998466100953340
0,3.489015817,20250904110746108,None,-3703,12.850379943847656,-3,0,-1,1,1,-1,-3,-6,1756998466108363628
0,3.4891006940000002,20250904110746108,None,-3703,12.850379943847656,-1,-1,-1,-1,1,0,2,-2,1756998466108484268
0,3.504074812,20250904110746123,None,-3703,14.75413990020752,-2,-1,0,-2,-1,-1,0,-3,1756998466123336791
0,3.50418663,20250904110746123,None,-3703,14.75413990020752,0,2,2,-7,-1,0,-2,-1,1756998466123487710
0,3.511478424,20250904110746130,None,-3703,6.6631598472595215,0,-2,-4,0,-2,-3,-2,-1,1756998466130784749
0,3.511563062,20250904110746131,None,-3703,6.6631598472595215,-1,2,-1,0,-1,0,2,-1,1756998466130896091
0,3.518967628,20250904110746138,None,-3703,14.75413990020752,-2,-3,-1,-2,-2,-1,-4,-3,1756998466138330459
0,3.519081592,20250904110746138,None,-3703,14.75413990020752,-3,-1,0,-4,-2,0,-3,-1,1756998466138478279
0,3.5340678690000003,20250904110746153,None,-3703,7.139100074768066,-3,-1,2,-1,-3,-3,1,2,1756998466153305768
0,3.534184217,20250904110746153,None,-3703,7.139100074768066,-1,1,0,2,3,0,-2,-2,1756998466153489112
0,3.541435242,20250904110746160,None,-3703,12.850379943847656,-1,2,-1,-2,-4,-4,-4,-1,1756998466160764694
0,3.541519403,20250904110746161,None,-3703,12.850379943847656,-1,-2,-3,0,-1,1,-1,-4,1756998466160898208
0,3.5490550990000003,20250904110746168,None,-3703,9.04286003112793,-2,1,1,1,-3,-1,1,2,1756998466168344497
0,3.549161911,20250904110746168,None,-3703,9.04286003112793,0,-1,0,-2,-2,1,0,3,1756998466168506860
0,3.564059019,20250904110746183,None,-3703,12.612409591674805,-1,-5,-4,-4,-4,-1,2,-3,1756998466183348655
0,3.564187527,20250904110746183,None,-3703,12.612409591674805,-2,-1,-1,-2,3,2,-3,-4,1756998466183490037
0,3.571790457,20250904110746191,None,-3703,12.612409591674805,-3,0,-1,2,3,3,-4,-1,1756998466190793991
0,3.5719821449999998,20250904110746191,None,-3703,12.612409591674805,-3,-3,-3,-3,-3,-1,-2,-1,1756998466190923213
0,3.579273224,20250904110746198,None,-3703,7.8530097007751465,0,0,-1,2,1,0,2,-1,1756998466198312520
0,3.5794570439999998,20250904110746198,None,-3703,7.8530097007751465,-4,0,-1,-1,-2,-4,-1,-3,1756998466198454380
0,3.594088316,20250904110746213,None,-3703,6.425189971923828,1,2,0,-1,-3,0,0,1,1756998466213340759
0,3.594210625,20250904110746213,None,-3703,6.425189971923828,1,1,1,-1,1,-1,-1,-2,1756998466213495254
0,3.601608038,20250904110746221,None,-3703,14.75413990020752,0,-2,1,-2,-4,-1,1,-6,1756998466220846891
0,3.601774454,20250904110746221,None,-3703,14.75413990020752,1,1,-1,4,1,1,1,-2,1756998466221065044
0,3.608972311,20250904110746228,None,-3703,14.75413990020752,-2,-5,-2,-3,1,1,2,1,1756998466228302955
0,3.6091430190000002,20250904110746228,None,-3703,7.139100074768066,-1,0,0,0,-2,-2,-4,-3,1756998466228426456
0,3.624177694,20250904110746243,None,-3703,13.326319694519043,1,1,0,0,-4,0,-2,-2,1756998466243461608
0,3.624288559,20250904110746243,None,-3703,13.326319694519043,1,1,-3,1,-2,-3,1,-2,1756998466243617773
0,3.631524563,20250904110746251,None,-3703,9.280829429626465,-1,-1,0,0,1,-2,-2,1,1756998466250761270
0,3.631658315,20250904110746251,None,-3703,9.280829429626465,1,-1,-1,-1,-5,0,-1,-1,1756998466250936746
0,3.638893366,20250904110746258,None,-3703,10.708649635314941,1,-2,-2,-1,12,-1,-2,1,1756998466258238315
0,3.638963938,20250904110746258,None,-3703,10.708649635314941,-2,-3,-3,-1,-1,-1,-2,-1,1756998466258348226
0,3.65405941,20250904110746273,None,-3703,11.898499488830566,0,-3,-3,-3,-5,0,1,-2,1756998466273296117
0,3.654184818,20250904110746273,None,-3703,11.898499488830566,-1,2,0,3,-1,-1,-2,2,1756998466273442983
0,3.6615138050000002,20250904110746281,None,-3703,8.09097957611084,0,-4,-2,-1,-3,-4,-2,-4,1756998466280748844
0,3.6616714,20250904110746281,None,-3703,8.09097957611084,2,2,1,-2,0,-4,-1,-4,1756998466280870437
0,3.668967008,20250904110746288,None,-3703,14.516169548034668,0,0,0,5,2,2,1,-2,1756998466288295984
0,3.669070959,20250904110746288,None,-3703,14.516169548034668,0,0,0,-1,-5,0,-3,-1,1756998466288418531
0,3.684127807,20250904110746303,None,-3703,14.75413990020752,-3,0,-1,-2,-3,-3,-3,-3,1756998466303397655
0,3.68423891,20250904110746303,None,-3703,14.75413990020752,-2,-2,-3,0,0,-1,0,0,1756998466303563833
0,3.691750526,20250904110746311,None,-3703,14.75413990020752,-1,-1,-2,3,-3,-4,-5,-3,1756998466310969591
0,3.692065,20250904110746311,None,-3703,14.75413990020752,0,0,0,-3,-7,-1,3,1,1756998466311336040
0,3.699297905,20250904110746318,None,-3703,6.6631598472595215,-4,2,-2,1,3,-2,-4,0,1756998466318529844
0,3.6994144909999997,20250904110746318,None,-3703,6.6631598472595215,-4,-4,-2,-1,1,2,-3,-1,1756998466318741083
0,3.714984417,20250904110746334,None,-3703,9.04286003112793,-1,8,4,-1,-2,0,-1,0,1756998466333921432
0,3.715184927,20250904110746334,None,-3703,9.04286003112793,2,-1,0,-3,-1,-3,-3,-2,1756998466334085226
0,3.721868276,20250904110746341,None,-3703,11.42255973815918,-2,-1,-2,0,-4,1,-1,-3,1756998466340867519
0,3.722076416,20250904110746341,None,-3703,11.42255973815918,-2,-7,1,2,0,-1,3,1,1756998466340984344
0,3.729242325,20250904110746348,None,-3703,11.42255973815918,-3,3,-2,1,1,-3,-3,-1,1756998466348308801
0,3.729425907,20250904110746348,None,-3703,11.42255973815918,-3,-7,-4,-4,-3,-2,-1,-4,1756998466348444938
0,3.744055748,20250904110746363,None,-3703,9.280829429626465,-4,-2,-1,2,1,-1,-1,-3,1756998466363328218
0,3.744189739,20250904110746363,None,-3703,9.280829429626465,-1,3,2,-3,0,-2,-1,0,1756998466363514661
0,3.751519918,20250904110746371,None,-3703,13.326319694519043,-2,1,0,0,-1,1,-3,0,1756998466370821714
0,3.751618862,20250904110746371,None,-3703,13.326319694519043,-2,0,-3,-5,-4,-1,-2,-1,1756998466370958089
0,3.759031534,20250904110746378,None,-3703,6.6631598472595215,-1,0,0,2,1,-2,0,-2,1756998466378358364
0,3.759130478,20250904110746378,None,-3703,6.6631598472595215,0,0,-1,-2,-3,-3,1,-1,1756998466378496170
0,3.773997783,20250904110746393,None,-3703,14.75413990020752,-1,-3,0,0,1,-2,-4,-3,1756998466393314599
0,3.774092197,20250904110746393,None,-3703,14.75413990020752,-1,0,0,0,1,-1,-4,-1,1756998466393438100
0,3.781376838,20250904110746400,None,-3703,6.901129722595215,0,-3,-1,0,-1,-3,3,2,1756998466400722026
0,3.781454325,20250904110746400,None,-3703,6.901129722595215,-1,-1,-1,0,0,0,-3,-1,1756998466400834798
0,3.788965702,20250904110746408,None,-3703,14.040229797363281,0,-1,0,2,-3,1,0,-3,1756998466408312082
0,3.7890625,20250904110746408,None,-3703,14.040229797363281,1,-1,-2,0,-7,-4,3,-2,1756998466408421277
0,3.804061413,20250904110746423,None,-3703,11.898499488830566,-1,0,0,4,3,-2,-9,-3,1756998466423340320
0,3.804181576,20250904110746423,None,-3703,11.898499488830566,0,0,1,-1,0,2,4,-1,1756998466423477411
0,3.811564445,20250904110746431,None,-3703,11.898499488830566,-3,0,-2,0,-1,-2,3,-4,1756998466430874109
0,3.811714411,20250904110746431,None,-3703,11.898499488830566,1,0,-5,-4,3,-1,3,3,1756998466431008338
0,3.818968057,20250904110746438,None,-3703,10.708649635314941,-2,-2,-4,-1,-1,0,-3,-1,1756998466438295364
0,3.819057941,20250904110746438,None,-3703,10.708649635314941,-1,0,0,1,8,5,3,3,1756998466438412427
0,3.834029198,20250904110746453,None,-3703,13.564290046691895,-1,1,-4,0,-3,1,1,-5,1756998466453321218
0,3.834139585,20250904110746453,None,-3703,13.564290046691895,0,-1,-2,-1,-3,-3,-2,0,1756998466453455924
0,3.8415570260000003,20250904110746461,None,-3703,6.901129722595215,0,-2,-2,-1,-4,0,1,1,1756998466460751295
0,3.841777086,20250904110746461,None,-3703,6.901129722595215,1,-2,3,0,-3,-4,-1,0,1756998466460869550
0,3.849044084,20250904110746468,None,-3703,6.901129722595215,-2,4,1,-4,1,0,-2,1,1756998466468287944
0,3.849221945,20250904110746468,None,-3703,6.901129722595215,0,-2,0,1,1,2,0,4,1756998466468415021
0,3.864126444,20250904110746483,None,-3703,6.901129722595215,-2,-4,-4,-2,-3,1,-3,-1,1756998466483373880
0,3.864316702,20250904110746483,None,-3703,6.901129722595215,-1,-1,1,1,-1,0,2,0,1756998466483539819
0,3.871545553,20250904110746491,None,-3703,14.516169548034668,-1,-1,3,-4,0,-2,4,0,1756998466490840911
0,3.871628761,20250904110746491,None,-3703,14.516169548034668,-1,1,0,0,0,0,1,0,1756998466490986347
0,3.878995657,20250904110746498,None,-3703,8.09097957611084,-5,0,-4,-7,-4,-1,-3,-1,1756998466498322963
0,3.879090547,20250904110746498,None,-3703,8.09097957611084,-2,1,-2,4,4,1,0,-1,1756998466498444795
0,3.894611597,20250904110746514,None,-3703,12.136469841003418,0,-2,1,-1,0,0,1,-1,1756998466513774394
0,3.8948719499999997,20250904110746514,None,-3703,12.136469841003418,-2,-1,-3,-4,-2,-1,-1,2,1756998466513924598
0,3.901526213,20250904110746521,None,-3703,10.232709884643555,-2,-2,-2,3,3,1,-2,-2,1756998466520781517
0,3.901608705,20250904110746521,None,-3703,10.232709884643555,1,-1,0,-3,0,0,2,0,1756998466520937204
0,3.9090693,20250904110746528,None,-3703,9.280829429626465,-1,0,-4,-1,-1,0,0,0,1756998466528354406
0,3.909157991,20250904110746528,None,-3703,9.280829429626465,1,1,1,2,2,0,-3,-1,1756998466528514862
0,3.924012422,20250904110746543,None,-3703,12.850379943847656,2,4,-2,0,-1,-1,2,1,1756998466543328285
0,3.924101829,20250904110746543,None,-3703,12.850379943847656,-1,0,-1,-3,-2,-7,-3,-1,1756998466543460607
0,3.93163538,20250904110746551,None,-3703,7.37706995010376,-2,-4,-4,0,-1,-2,1,-1,1756998466550810813
0,3.931839227,20250904110746551,None,-3703,7.37706995010376,0,-1,-2,-4,0,0,4,0,1756998466550927877
0,3.938961983,20250904110746558,None,-3703,14.75413990020752,-1,0,-2,-1,2,-2,-3,-2,1756998466558298587
0,3.939059019,20250904110746558,None,-3703,14.75413990020752,-1,-1,2,1,0,0,-3,0,1756998466558411121
0,3.954087019,20250904110746573,None,-3703,14.516169548034668,1,-3,-3,-4,-2,1,-3,-1,1756998466573325395
0,3.954240799,20250904110746573,None,-3703,14.516169548034668,-2,7,-1,-1,-2,-2,0,0,1756998466573454856
0,3.961699962,20250904110746581,None,-3703,7.615039825439453,-1,0,2,3,3,-1,-3,2,1756998466580945968
0,3.961856365,20250904110746581,None,-3703,7.615039825439453,-1,-4,-4,-5,-3,-1,-1,-3,1756998466581145763
0,3.968933582,20250904110746588,None,-3703,12.612409591674805,0,0,2,2,0,0,3,2,1756998466588272809
0,3.96901536,20250904110746588,None,-3703,12.612409591674805,-3,0,-2,-4,-6,-1,-2,-1,1756998466588380575
0,3.984048843,20250904110746603,None,-3703,9.756770133972168,-3,-4,-2,2,2,-2,-2,0,1756998466603334426
0,3.984168768,20250904110746603,None,-3703,9.756770133972168,-3,0,1,0,3,0,-2,-6,1756998466603460311
0,3.991436481,20250904110746610,None,-3703,10.232709884643555,-3,-3,1,-1,1,1,-1,-2,1756998466610787868
0,3.991526127,20250904110746611,None,-3703,10.232709884643555,1,-1,-1,-3,-5,-2,-1,2,1756998466610897064
0,3.999171257,20250904110746618,None,-3703,12.612409591674805,-2,-3,0,-1,4,3,1,-4,1756998466618451356
0,3.999348163,20250904110746618,None,-3703,12.612409591674805,0,-1,-3,-1,-1,0,-3,0,1756998466618677616
0,4.014028311,20250904110746633,None,-3703,7.615039825439453,-1,0,0,1,-3,1,3,-2,1756998466633323431
0,4.014121771,20250904110746633,None,-3703,7.615039825439453,-1,-1,1,0,-2,-1,-2,-2,1756998466633508205
0,4.02141428,20250904110746640,None,-3703,14.278200149536133,-1,1,-2,-2,-2,0,-2,-3,1756998466640771150
0,4.021492719,20250904110746641,None,-3703,14.278200149536133,1,0,2,-1,-3,-5,0,-1,1756998466640875101
0,4.036535263,20250904110746656,None,-3703,14.75413990020752,2,0,0,2,1,3,2,-2,1756998466655802726
0,4.036705255,20250904110746656,None,-3703,14.75413990020752,-4,-3,0,1,-1,1,-1,-2,1756998466655976295
0,4.044084787,20250904110746663,None,-3703,7.139100074768066,1,10,1,1,-5,-1,-1,0,1756998466663386583
0,4.044173956,20250904110746663,None,-3703,7.139100074768066,1,0,0,1,-1,-5,-1,0,1756998466663522005
0,4.051515102,20250904110746671,None,-3703,7.139100074768066,2,0,-5,-3,1,1,-3,-1,1756998466670829057
0,4.051609039,20250904110746671,None,-3703,7.139100074768066,-1,-4,-1,2,1,1,4,0,1756998466670965671
0,4.066569328,20250904110746686,None,-3703,9.518799781799316,-1,-3,-3,0,-3,-1,3,5,1756998466685814380
0,4.066681385,20250904110746686,None,-3703,9.518799781799316,-4,1,1,-2,2,-2,-4,-2,1756998466686007738
0,4.082407713,20250904110746701,None,-3703,12.136469841003418,-4,0,-1,-2,1,0,-5,-3,1756998466701580286
0,4.082555771,20250904110746702,None,-3703,12.136469841003418,-1,-5,-1,0,-2,-2,1,3,1756998466701766729
0,4.082782745,20250904110746702,None,-3703,12.136469841003418,1,0,-2,-4,1,-1,0,-1,1756998466702156305
0,4.082860708,20250904110746702,None,-3703,12.136469841003418,-3,1,-5,-3,2,0,-4,0,1756998466702265024
0,4.096722126,20250904110746716,None,-3703,7.8530097007751465,-6,-3,-1,-3,-4,-3,-3,-3,1756998466715938568
0,4.097125053,20250904110746716,None,-3703,7.8530097007751465,-2,-5,2,0,-2,-2,-3,-3,1756998466716119766
0,4.104192495,20250904110746723,None,-3703,14.278200149536133,1,-1,0,0,-2,2,6,4,1756998466723394870
0,4.104344368,20250904110746723,None,-3703,14.278200149536133,-1,-3,-2,-2,1,-4,-2,-3,1756998466723621845
0,4.111583948,20250904110746731,None,-3703,6.187219619750977,-1,1,-1,-3,-4,-2,0,-2,1756998466730820655
0,4.111756086,20250904110746731,None,-3703,6.187219619750977,-1,-5,-3,3,0,-2,-2,1,1756998466730959653
0,4.126470327,20250904110746745,None,-3703,14.516169548034668,0,-1,-4,-2,0,-1,-2,0,1756998466745780706
0,4.126629591,20250904110746746,None,-3703,6.6631598472595215,0,0,-2,-2,-2,0,2,-2,1756998466745901584
0,4.133918285,20250904110746753,None,-3703,6.6631598472595215,-1,-1,-1,1,-1,-3,0,0,1756998466753251075
0,4.134073019,20250904110746753,None,-3703,6.6631598472595215,-3,-6,-3,0,-3,-2,-1,1,1756998466753367662
0,4.141567945,20250904110746761,None,-3703,13.326319694519043,-2,-1,0,-5,-3,-4,-5,-3,1756998466760822772
0,4.141682863,20250904110746761,None,-3703,13.326319694519043,3,0,0,1,0,4,1,3,1756998466761000394
0,4.156487226,20250904110746776,None,-3703,11.184589385986328,-4,-4,-2,-1,-3,0,-3,0,1756998466775784492
0,4.156612158,20250904110746776,None,-3703,11.184589385986328,-1,0,-2,-3,0,0,1,2,1756998466775899410
0,4.163967371,20250904110746783,None,-3703,11.42255973815918,0,2,0,-1,-4,-2,-2,1,1756998466783287525
0,4.16407156,20250904110746783,None,-3703,11.42255973815918,-3,-1,1,-3,-1,1,0,2,1756998466783396720
0,4.171594381,20250904110746791,None,-3703,11.42255973815918,-1,1,-1,-2,-1,-2,-2,-2,1756998466790876150
0,4.171719789,20250904110746791,None,-3703,11.42255973815918,-1,-1,-1,-1,2,0,-3,1,1756998466791080713
0,4.18643403,20250904110746805,None,-3703,14.040229797363281,1,-2,-1,-6,-4,-2,1,0,1756998466805741071
0,4.186541557,20250904110746806,None,-3703,14.040229797363281,-2,-1,-1,2,0,2,-2,-1,1756998466805856227
0,4.193891525,20250904110746813,None,-3703,6.6631598472595215,1,0,-4,3,3,0,-3,-1,1756998466813250780
0,4.193973064,20250904110746813,None,-3703,6.6631598472595215,-3,1,0,-3,-2,-2,0,-3,1756998466813362360
0,4.201628208,20250904110746821,None,-3703,14.75413990020752,-2,-4,0,-4,0,2,2,1,1756998466820823192
0,4.201827764,20250904110746821,None,-3703,14.75413990020752,2,-2,1,0,0,1,-1,-2,1756998466820996761
0,4.216528654,20250904110746836,None,-3703,6.425189971923828,-1,-3,-1,-1,-1,-1,-1,1,1756998466835809230
0,4.216669082,20250904110746836,None,-3703,6.425189971923828,-3,2,-1,3,-4,-3,0,-1,1756998466835951805
0,4.224006891,20250904110746843,None,-3703,13.80225944519043,3,-2,-1,-1,0,3,2,3,1756998466843329906
0,4.224122762,20250904110746843,None,-3703,13.80225944519043,-2,1,-2,-4,-2,2,0,-2,1756998466843459844
0,4.231567144,20250904110746851,None,-3703,8.09097957611084,-2,-1,1,-5,-5,-2,3,-1,1756998466850851297
0,4.231666803,20250904110746851,None,-3703,8.09097957611084,0,-5,-2,3,2,0,-1,0,1756998466851004123
0,4.246477365,20250904110746865,None,-3703,11.42255973815918,-1,6,2,-3,-6,-5,-5,-3,1756998466865764379
0,4.246575355,20250904110746866,None,-3703,11.42255973815918,0,-5,-1,0,-1,-2,0,-1,1756998466865904808
0,4.253984213,20250904110746873,None,-3703,11.184589385986328,-3,-1,-2,-2,0,0,-4,-3,1756998466873274564
0,4.254065037,20250904110746873,None,-3703,11.184589385986328,-4,-1,-2,-3,1,0,1,-1,1756998466873409032
0,4.269026279,20250904110746888,None,-3703,13.80225944519043,2,1,-1,1,-3,-1,-3,-2,1756998466888320446
0,4.269140005,20250904110746888,None,-3703,13.80225944519043,-2,1,0,-5,-5,-1,0,-2,1756998466888461351
0,4.276499271,20250904110746896,None,-3703,6.6631598472595215,-1,0,-4,1,4,-1,-2,-1,1756998466895791530
0,4.276577949,20250904110746896,None,-3703,6.6631598472595215,0,0,0,1,8,6,-2,-2,1756998466895921468
0,4.284076929,20250904110746903,None,-3703,6.6631598472595215,-3,-3,-1,1,0,1,1,-1,1756998466903345346
0,4.284197569,20250904110746903,None,-3703,6.6631598472595215,-1,-3,2,-2,-4,-3,0,2,1756998466903473377
0,4.291416168,20250904110746910,None,-3703,14.75413990020752,2,-2,1,1,-4,-3,1,-1,1756998466910728693
0,4.291537761,20250904110746911,None,-3703,14.75413990020752,-4,-1,-2,-5,-2,-1,-1,1,1756998466910845518
0,4.306646347,20250904110746926,None,-3703,14.278200149536133,0,0,-3,0,-3,-3,1,2,1756998466925836563
0,4.306843519,20250904110746926,None,-3703,14.278200149536133,-3,-5,-7,-2,3,1,-1,-4,1756998466925996780
0,4.314214945,20250904110746933,None,-3703,8.09097957611084,-2,-3,-1,0,2,3,-2,-1,1756998466933301687
0,4.314331293,20250904110746933,None,-3703,8.09097957611084,0,-1,2,-2,1,1,0,-1,1756998466933434009
0,4.321436643,20250904110746940,None,-3703,11.898499488830566,0,-2,0,3,-1,-2,0,-3,1756998466940651416
0,4.321484804,20250904110746940,None,-3703,11.898499488830566,-1,-2,0,-4,-1,-3,-2,-1,1756998466940762281
0,4.3367028229999995,20250904110746956,None,-3703,10.470680236816406,-1,5,1,2,1,1,-1,2,1756998466955823183
0,4.3368308540000005,20250904110746956,None,-3703,10.470680236816406,-5,1,-1,-4,-4,1,0,-3,1756998466955973148
0,4.344187021,20250904110746963,None,-3703,9.518799781799316,0,-1,-1,-6,-5,-1,0,1,1756998466963347673
0,4.34427762,20250904110746963,None,-3703,9.518799781799316,1,0,-1,-1,-1,-2,-5,-1,1756998466963471889
0,4.351739168,20250904110746971,None,-3703,13.326319694519043,1,-2,-4,-4,-3,-2,1,-3,1756998466970827817
0,4.351872444,20250904110746971,None,-3703,13.326319694519043,1,0,-2,-2,-1,2,2,3,1756998466970963478
0,4.366715431,20250904110746986,None,-3703,7.139100074768066,0,-1,2,-3,-2,-2,-1,1,1756998466985800266
0,4.36682415,20250904110746986,None,-3703,7.139100074768066,-1,2,-4,1,2,0,1,-2,1756998466985936164
0,4.374116421,20250904110746993,None,-3703,14.75413990020752,0,-1,1,-5,-5,-2,-7,-1,1756998466993267297
0,4.374212742,20250904110746993,None,-3703,14.75413990020752,0,2,3,3,3,2,8,3,1756998466993402004
0,4.381820202,20250904110747001,None,-3703,6.425189971923828,-1,-5,-3,3,-5,-1,2,0,1756998467000761032
0,4.381970644,20250904110747001,None,-3703,6.425189971923828,0,0,-2,-2,-2,-2,0,1,1756998467000936746
0,4.396922111,20250904110747016,None,-3703,7.615039825439453,-2,-3,-3,-2,-2,1,-7,-3,1756998467015816211
0,4.397089243,20250904110747016,None,-3703,7.615039825439453,0,0,1,2,3,0,-1,-3,1756998467015946149
0,4.404268265,20250904110747023,None,-3703,12.612409591674805,0,-1,3,3,-2,1,0,-1,1756998467023298263
0,4.404412269,20250904110747023,None,-3703,12.612409591674805,-1,-4,0,-1,-1,1,-1,-1,1756998467023429632
0,4.411381721,20250904110747030,None,-3703,12.612409591674805,2,-3,-3,-1,0,-1,-2,-2,1756998467030661582
0,4.411551714,20250904110747031,None,-3703,9.994739532470703,-1,1,1,-1,-3,1,-1,3,1756998467030773878
0,4.426701069,20250904110747046,None,-3703,9.994739532470703,2,-2,-4,3,1,-1,0,-1,1756998467045816659
0,4.427100658,20250904110747046,None,-3703,9.994739532470703,-2,-2,1,-2,-2,0,-4,-4,1756998467045990228
0,4.449843168,20250904110747069,None,-3703,14.516169548034668,0,0,-1,0,-4,0,3,-1,1756998467069025754
0,4.450002432,20250904110747069,None,-3703,14.516169548034668,0,1,-1,-1,-2,0,1,-3,1756998467069175243
0,4.450603723,20250904110747070,None,-3703,14.516169548034668,-3,-5,-1,2,0,-4,-2,-2,1756998467069874286
0,4.450698852,20250904110747070,None,-3703,14.516169548034668,0,-1,-1,-3,-1,-1,0,3,1756998467070061683
0,4.456470728,20250904110747075,None,-3703,14.516169548034668,-3,-6,1,2,1,2,-3,-4,1756998467075767040
0,4.4565696710000005,20250904110747076,None,-3703,14.516169548034668,1,-2,-4,-2,-2,-1,1,-1,1756998467075882196
0,4.46385026,20250904110747083,None,-3703,6.425189971923828,0,2,1,-3,-10,-5,2,-1,1756998467083193540
0,4.463921547,20250904110747083,None,-3703,6.425189971923828,1,1,-1,-1,12,0,-2,1,1756998467083317756
0,4.471737623,20250904110747091,None,-3703,14.516169548034668,0,-2,-3,2,1,1,-3,-5,1756998467090790748
0,4.472007274,20250904110747091,None,-3703,14.516169548034668,-3,0,-2,-1,-4,-5,1,-1,1756998467090958118
0,4.494629144,20250904110747114,None,-3703,12.850379943847656,-2,2,-1,1,-2,-1,-5,-2,1756998467113919973
0,4.494764566,20250904110747114,None,-3703,12.850379943847656,0,-1,1,1,1,-1,1,0,1756998467114042282
0,4.495345592,20250904110747114,None,-3703,12.850379943847656,1,-1,-1,0,1,0,0,-1,1756998467114686250
0,4.495446205,20250904110747114,None,-3703,12.850379943847656,-3,-1,-1,-2,-2,1,-1,-1,1756998467114788770
0,4.501435041,20250904110747120,None,-3703,9.756770133972168,2,3,-2,-5,-4,-2,1,0,1756998467120762825
0,4.501538276,20250904110747121,None,-3703,9.756770133972168,-1,-2,1,-2,-1,1,-3,-3,1756998467120877504
0,4.51645422,20250904110747135,None,-3703,12.612409591674805,2,2,1,4,2,0,-3,1,1756998467135752916
0,4.51658678,20250904110747136,None,-3703,12.612409591674805,0,-1,-4,-1,0,0,-2,-2,1756998467135867118
0,4.524096727,20250904110747143,None,-3703,7.8530097007751465,1,2,-1,-5,-3,-3,1,-1,1756998467143380880
0,4.52422142,20250904110747143,None,-3703,7.8530097007751465,0,0,-2,-1,-1,-1,-2,-5,1756998467143499612
0,4.531467199,20250904110747150,None,-3703,7.8530097007751465,0,-3,0,1,2,-2,5,0,1756998467150774240
0,4.531565189,20250904110747151,None,-3703,7.8530097007751465,-1,-5,-4,-2,-4,-3,-2,0,1756998467150879144
0,4.5465538500000005,20250904110747166,None,-3703,6.6631598472595215,1,1,0,-5,2,0,-1,1,1756998467165834665
0,4.546639919,20250904110747166,None,-3703,6.6631598472595215,1,0,5,-4,-1,-1,-2,1,1756998467166014432
0,4.553946256,20250904110747173,None,-3703,14.75413990020752,-1,-5,0,2,0,-2,1,2,1756998467173297882
0,4.554016828,20250904110747173,None,-3703,14.75413990020752,-1,-3,0,-3,-3,-2,-2,-4,1756998467173421382
0,4.5615658759999995,20250904110747181,None,-3703,6.901129722595215,2,0,1,3,4,2,-3,0,1756998467180826187
0,4.561674356,20250904110747181,None,-3703,6.901129722595215,2,-1,-1,-3,3,0,-4,1,1756998467180967092
0,4.576419592,20250904110747195,None,-3703,13.326319694519043,0,-1,1,1,-2,-1,1,-1,1756998467195721387
0,4.576528072,20250904110747196,None,-3703,13.326319694519043,-1,1,1,-4,-2,-1,-2,0,1756998467195839166
0,4.584082842,20250904110747203,None,-3703,9.280829429626465,2,-1,-1,4,6,1,1,-1,1756998467203396797
0,4.584191561,20250904110747203,None,-3703,9.280829429626465,-3,-1,-2,-1,0,-1,3,0,1756998467203528881
0,4.591557026,20250904110747211,None,-3703,10.708649635314941,-1,4,-1,-2,-5,-2,0,-4,1756998467210829019
0,4.591684103,20250904110747211,None,-3703,10.708649635314941,-1,-1,-2,1,-1,-1,-2,0,1756998467210955381
0,4.606526375,20250904110747226,None,-3703,8.09097957611084,-1,-1,0,2,1,-1,1,-3,1756998467225799322
0,4.606650829,20250904110747226,None,-3703,8.09097957611084,4,1,-1,0,0,-2,-1,0,1756998467225965023
0,4.613959312,20250904110747233,None,-3703,8.09097957611084,3,-2,-2,-3,-1,-2,-1,-1,1756998467233288049
0,4.614039659,20250904110747233,None,-3703,8.09097957611084,-2,-3,0,-1,-1,-2,0,0,1756998467233420372
0,4.621426344,20250904110747240,None,-3703,14.278200149536133,-4,-2,0,-2,1,1,-1,-5,1756998467240754365
0,4.6215145589999995,20250904110747241,None,-3703,14.278200149536133,0,0,-1,2,1,4,0,-2,1756998467240885257
0,4.636536121,20250904110747256,None,-3703,14.75413990020752,-1,3,0,-1,-3,-1,3,0,1756998467255759716
0,4.636652708,20250904110747256,None,-3703,14.75413990020752,-1,-1,0,-2,0,-1,1,2,1756998467255900382
0,4.643933058,20250904110747263,None,-3703,6.425189971923828,-1,-1,0,3,1,-3,-1,-3,1756998467263279676
0,4.6440207959999995,20250904110747263,None,-3703,6.425189971923828,0,3,1,-1,2,0,0,-1,1756998467263393878
0,4.6516034600000005,20250904110747271,None,-3703,6.425189971923828,-1,-3,-2,1,-3,0,-1,1,1756998467270805358
0,4.651856184,20250904110747271,None,-3703,6.425189971923828,-3,-2,2,1,-3,-3,-1,1,1756998467270970106
0,4.66709733,20250904110747286,None,-3703,8.804889678955078,0,-1,-1,-4,2,2,-3,1,1756998467286334514
0,4.667232513,20250904110747286,None,-3703,8.804889678955078,3,0,2,0,-1,-3,2,0,1756998467286486864
0,4.67414999,20250904110747293,None,-3703,11.42255973815918,2,-1,0,-2,-6,-2,1,0,1756998467293437719
0,4.6742410660000004,20250904110747293,None,-3703,11.42255973815918,-1,-3,-3,-1,-2,-2,3,-1,1756998467293623208
0,4.681406021,20250904110747300,None,-3703,11.184589385986328,-1,-1,0,0,0,0,0,0,1756998467300729274
0,4.681490421,20250904110747301,None,-3703,11.184589385986328,-3,1,-1,0,-1,1,-2,-4,1756998467300846815
0,4.696481466,20250904110747315,None,-3703,8.804889678955078,-2,-2,-4,-4,-1,-2,-7,-1,1756998467315766334
0,4.696609974,20250904110747316,None,-3703,8.804889678955078,-2,1,1,0,0,2,6,1,1756998467315924406
0,4.7122306819999995,20250904110747331,None,-3703,6.425189971923828,-3,2,-1,-1,-4,-1,1,1,1756998467331502676
0,4.712339163,20250904110747331,None,-3703,6.425189971923828,-1,-1,3,1,4,1,-1,-1,1756998467331624984
0,4.712862491,20250904110747332,None,-3703,6.425189971923828,0,-3,-3,-4,-14,-4,-3,2,1756998467332205533
0,4.712938547,20250904110747332,None,-3703,6.425189971923828,-1,0,1,-2,7,-2,-1,-3,1756998467332316637
0,4.726402521,20250904110747345,None,-3703,14.516169548034668,1,-1,-3,-1,7,2,-1,-2,1756998467345697164
0,4.726501703,20250904110747346,None,-3703,14.516169548034668,1,-2,-2,2,-3,-2,-1,0,1756998467345819234
0,4.733937979,20250904110747353,None,-3703,6.6631598472595215,-3,-1,-3,0,-6,-5,-2,-2,1756998467353260517
0,4.734026432,20250904110747353,None,-3703,6.6631598472595215,-1,0,0,-1,-1,0,-4,-1,1756998467353392601
0,4.741417646,20250904110747360,None,-3703,13.80225944519043,-1,5,4,1,3,3,4,1,1756998467360737800
0,4.741502285,20250904110747361,None,-3703,13.80225944519043,-1,-5,-4,-2,-2,-1,-3,-1,1756998467360854625
0,4.764609337,20250904110747384,None,-3703,11.660530090332031,0,-4,-4,0,-4,-2,2,2,1756998467383890867
0,4.7647521489999995,20250904110747384,None,-3703,10.470680236816406,0,2,0,-3,1,2,-3,-5,1756998467384007930
0,4.7652041910000005,20250904110747384,None,-3703,10.470680236816406,2,-1,-1,4,1,1,0,-1,1756998467384608268
0,4.765262842,20250904110747384,None,-3703,10.470680236816406,3,-2,-1,-1,-6,-3,1,0,1756998467384689092
0,4.771526098,20250904110747391,None,-3703,9.04286003112793,-1,-3,1,-2,1,-1,0,2,1756998467390751123
0,4.77168107,20250904110747391,None,-3703,9.04286003112793,-2,-1,1,0,-3,1,0,-2,1756998467390910387
0,4.786632299,20250904110747406,None,-3703,13.326319694519043,0,7,2,0,1,0,3,1,1756998467405827760
0,4.786785126,20250904110747406,None,-3703,13.326319694519043,0,-2,-2,-3,-6,-1,1,-1,1756998467405961990
0,4.794113159,20250904110747413,None,-3703,6.901129722595215,-4,0,-2,-2,0,-3,0,-1,1756998467413366317
0,4.794228077,20250904110747413,None,-3703,6.901129722595215,-1,0,0,0,0,0,-2,-2,1756998467413492202
0,4.801743269,20250904110747421,None,-3703,14.75413990020752,-2,3,1,-5,0,0,-4,-4,1756998467420915603
0,4.801906109,20250904110747421,None,-3703,14.75413990020752,1,2,-2,-1,-3,-1,-3,-1,1756998467421158075
0,4.824790001,20250904110747444,None,-3703,14.278200149536133,0,-3,-2,-5,-1,-1,2,1,1756998467443965435
0,4.824958086,20250904110747444,None,-3703,14.278200149536133,0,-1,-2,0,2,-1,-1,3,1756998467444113492
0,4.825322151,20250904110747444,None,-3703,14.278200149536133,-2,-5,-1,-2,-2,-3,-1,-3,1756998467444683551
0,4.825404167,20250904110747444,None,-3703,14.278200149536133,1,-2,0,-1,-1,2,-1,0,1756998467444793939
0,4.831519127,20250904110747451,None,-3703,7.8530097007751465,1,1,-2,1,4,-1,-2,-3,1756998467450805425
0,4.831623077,20250904110747451,None,-3703,7.8530097007751465,-1,-3,-5,-8,-3,1,1,-1,1756998467450949430
0,4.846532583,20250904110747466,None,-3703,10.232709884643555,-4,0,1,2,3,-3,5,2,1756998467465763092
0,4.846660375,20250904110747466,None,-3703,10.232709884643555,-4,0,-2,4,0,1,-5,-1,1756998467465884208
0,4.854029178,20250904110747473,None,-3703,10.470680236816406,-4,0,0,-1,3,-1,-4,-3,1756998467473303318
0,4.854165792,20250904110747473,None,-3703,10.470680236816406,-2,-3,-2,-6,-5,0,-2,-5,1756998467473429441
0,4.861533403,20250904110747481,None,-3703,10.470680236816406,2,3,1,1,6,3,6,1,1756998467480801820
0,4.861685753,20250904110747481,None,-3703,10.470680236816406,-2,-4,-1,-2,0,-1,-1,-1,1756998467480921268
0,4.876506805,20250904110747496,None,-3703,7.139100074768066,-2,-1,-3,-3,-2,-1,0,-1,1756998467495746135
0,4.876637459,20250904110747496,None,-3703,7.139100074768066,0,-2,-3,2,0,-2,-3,1,1756998467495867252
0,4.884047508,20250904110747503,None,-3703,14.516169548034668,0,-1,-5,-2,0,-5,-3,-4,1756998467503314256
0,4.884206056,20250904110747503,None,-3703,14.516169548034668,1,2,2,1,1,0,1,1,1756998467503514528
0,4.89154315,20250904110747511,None,-3703,6.425189971923828,2,-1,-1,1,1,-3,-3,0,1756998467510847091
0,4.891630888,20250904110747511,None,-3703,6.425189971923828,1,-2,1,-3,-1,1,1,-4,1756998467510976552
0,4.906535864,20250904110747526,None,-3703,14.278200149536133,-1,0,-5,-2,-1,-1,1,-1,1756998467525826454
0,4.906631946,20250904110747526,None,-3703,14.278200149536133,0,-1,-2,-3,-3,-1,-1,-2,1756998467525954246
0,4.91402626,20250904110747533,None,-3703,7.139100074768066,0,-1,4,3,3,0,1,0,1756998467533341646
0,4.914157629,20250904110747533,None,-3703,7.139100074768066,-2,-4,0,-1,-2,1,2,-1,1756998467533477544
0,4.921480179,20250904110747541,None,-3703,12.374439239501953,-4,1,-1,4,-2,-1,-4,-2,1756998467540816783
0,4.921578169,20250904110747541,None,-3703,12.374439239501953,-2,-3,-3,-2,-1,-4,-1,0,1756998467540930747
0,4.936542511,20250904110747556,None,-3703,9.756770133972168,1,8,4,1,-6,-1,2,1,1756998467555774927
0,4.93665266,20250904110747556,None,-3703,9.756770133972168,2,-2,-3,-1,10,0,2,-4,1756998467555924654
0,4.943976164,20250904110747563,None,-3703,10.232709884643555,-1,-3,-2,1,1,-3,0,-1,1756998467563302516
0,4.944060087,20250904110747563,None,-3703,10.232709884643555,-1,1,1,-3,-11,-2,0,1,1756998467563419580
0,4.959037065,20250904110747578,None,-3703,7.37706995010376,-1,-3,0,3,0,-2,-1,-1,1756998467578323364
0,4.959146499,20250904110747578,None,-3703,7.37706995010376,-3,-1,-1,2,-1,-2,-2,-2,1756998467578439474
0,4.966445446,20250904110747585,None,-3703,14.516169548034668,2,-2,-2,0,-1,0,0,-2,1756998467585765600
0,4.966554642,20250904110747586,None,-3703,14.516169548034668,0,-2,-4,-6,-4,1,3,2,1756998467585867166
0,4.973929643,20250904110747593,None,-3703,14.516169548034668,-1,1,-1,-1,-1,-3,-1,-3,1756998467593290567
0,4.9740095140000005,20250904110747593,None,-3703,14.516169548034668,0,1,-2,-2,-2,-2,-2,-1,1756998467593396186
0,4.989005565,20250904110747608,None,-3703,14.516169548034668,6,1,3,2,0,2,1,2,1756998467608273744
0,4.989140987,20250904110747608,None,-3703,14.516169548034668,-1,-1,1,1,2,0,0,1,1756998467608378410
0,4.996524334,20250904110747616,None,-3703,7.139100074768066,-3,0,0,2,-3,-4,-3,-5,1756998467615798711
0,4.996629238,20250904110747616,None,-3703,7.139100074768066,-2,0,-1,-2,-3,3,-2,-1,1756998467615919351
0,5.004003048,20250904110747623,None,-3703,13.326319694519043,0,0,0,2,2,0,3,-2,1756998467623280525
0,5.004096269,20250904110747623,None,-3703,13.326319694519043,2,2,-1,1,-1,-3,0,-1,1756998467623394727
0,5.019236803,20250904110747638,None,-3703,9.04286003112793,-3,0,1,1,0,-1,-1,-3,1756998467638335227
0,5.019405126,20250904110747638,None,-3703,9.04286003112793,-2,-4,0,-2,-1,-4,2,0,1756998467638519287
0,5.026458263,20250904110747645,None,-3703,10.708649635314941,-5,-1,-1,0,3,0,1,-2,1756998467645769357
0,5.026575804,20250904110747646,None,-3703,10.708649635314941,2,-2,-2,-3,0,-2,0,-1,1756998467645885705
0,5.03399682,20250904110747653,None,-3703,12.374439239501953,0,-1,-3,-1,-1,1,-1,-1,1756998467653299570
0,5.034078598,20250904110747653,None,-3703,12.374439239501953,0,-5,1,-1,-1,-1,-4,-1,1756998467653440952
0,5.048960209,20250904110747668,None,-3703,7.8530097007751465,-2,-3,0,-4,0,-3,0,-3,1756998467668287277
0,5.049058437,20250904110747668,None,-3703,7.8530097007751465,1,0,-1,2,-1,-2,1,-3,1756998467668410539
0,5.056493759,20250904110747676,None,-3703,14.278200149536133,-2,2,-1,1,0,-2,-2,-4,1756998467675790309
0,5.056615114,20250904110747676,None,-3703,14.278200149536133,1,-4,-1,-4,1,-1,-4,-1,1756998467675928115
0,5.063972473,20250904110747683,None,-3703,6.6631598472595215,-1,2,0,-1,-1,0,-3,-1,1756998467683263540
0,5.064146042,20250904110747683,None,-3703,6.6631598472595215,-2,0,-1,-3,1,-2,1,-3,1756998467683394908
0,5.079130411,20250904110747698,None,-3703,6.901129722595215,1,-3,-4,-2,-2,1,2,2,1756998467698343276
0,5.079270363,20250904110747698,None,-3703,6.901129722595215,-2,0,0,0,-4,1,-4,0,1756998467698511123
0,5.086544752,20250904110747706,None,-3703,6.901129722595215,0,-3,-1,1,5,1,-2,0,1756998467705803871
0,5.086683035,20250904110747706,None,-3703,6.901129722595215,-1,-1,-3,0,-1,-2,-2,1,1756998467705926418
0,5.094043016,20250904110747713,None,-3703,13.326319694519043,0,0,-1,-3,0,-2,0,-3,1756998467713315725
0,5.094186544,20250904110747713,None,-3703,13.326319694519043,0,-1,0,0,-4,3,-1,2,1756998467713440418
0,5.109030723,20250904110747728,None,-3703,10.946619987487793,-2,-1,-4,-4,-4,-6,-1,0,1756998467728314638
0,5.10921669,20250904110747728,None,-3703,10.946619987487793,-2,-1,-1,-2,1,1,0,-2,1756998467728442430
0,5.11649704,20250904110747736,None,-3703,11.42255973815918,-2,-1,-1,1,2,1,3,2,1756998467735818386
0,5.11659193,20250904110747736,None,-3703,11.42255973815918,0,0,0,1,-1,1,-5,-3,1756998467735941410
0,5.124090671,20250904110747743,None,-3703,8.328949928283691,-2,1,-2,-3,2,0,-4,0,1756998467743352890
0,5.124192238,20250904110747743,None,-3703,8.328949928283691,-1,-1,0,-1,-1,-1,1,-1,1756998467743526220
0,5.139177322,20250904110747758,None,-3703,13.564290046691895,-1,2,1,0,0,-3,1,-3,1756998467758365392
0,5.139362573,20250904110747758,None,-3703,13.564290046691895,1,-3,-4,2,-1,0,0,-1,1756998467758525609
0,5.146600008,20250904110747766,None,-3703,6.6631598472595215,-2,0,2,-3,0,-3,-1,-1,1756998467765828132
0,5.146736145,20250904110747766,None,-3703,6.6631598472595215,-4,-1,0,-2,-1,-1,1,-2,1756998467765978574
0,5.153921127,20250904110747773,None,-3703,14.75413990020752,2,-1,-3,-2,-4,0,2,2,1756998467773252725
0,5.154017925,20250904110747773,None,-3703,14.75413990020752,-2,1,0,-2,1,1,-2,3,1756998467773367404
0,5.16907072,20250904110747788,None,-3703,6.6631598472595215,2,0,-2,0,-2,-2,-4,-3,1756998467788318157
0,5.169214964,20250904110747788,None,-3703,6.6631598472595215,1,2,0,0,1,-3,2,1,1756998467788465499
0,5.176465511,20250904110747795,None,-3703,14.278200149536133,-1,1,-1,-2,-2,-6,-1,1,1756998467795757770
0,5.176573992,20250904110747796,None,-3703,14.278200149536133,0,-2,1,0,5,-2,-1,-2,1756998467795878648
0,5.183993101,20250904110747803,None,-3703,8.804889678955078,0,-1,-2,-6,-1,-1,-1,-5,1756998467803299427
0,5.184101581,20250904110747803,None,-3703,8.804889678955078,-3,-3,-1,-4,-2,-3,-1,0,1756998467803432703
0,5.199061632,20250904110747818,None,-3703,10.946619987487793,-2,0,0,0,-1,0,1,-1,1756998467818334817
0,5.199165582,20250904110747818,None,-3703,10.946619987487793,2,-1,2,-1,2,1,-3,0,1756998467818472623
0,5.206518411,20250904110747826,None,-3703,8.804889678955078,2,-3,-3,2,-1,1,1,0,1756998467825812578
0,5.206615448,20250904110747826,None,-3703,8.804889678955078,-1,-3,-1,1,-2,0,0,0,1756998467825949430
0,5.214084625,20250904110747833,None,-3703,8.804889678955078,-1,2,0,-2,-6,-1,0,1,1756998467833346843
0,5.21420908,20250904110747833,None,-3703,8.804889678955078,-1,-6,-4,1,0,-1,-4,-1,1756998467833508491
0,5.229038477,20250904110747848,None,-3703,6.901129722595215,-1,0,-1,1,2,-1,-2,-2,1756998467848317861
0,5.229166746,20250904110747848,None,-3703,6.901129722595215,-1,2,0,0,-5,-1,1,3,1756998467848442792
0,5.236462354,20250904110747855,None,-3703,14.75413990020752,-4,-8,-5,-3,2,-1,-2,-2,1756998467855764627
0,5.236583948,20250904110747856,None,-3703,14.75413990020752,-2,1,-1,-5,2,1,-2,0,1756998467855882644
0,5.243898153,20250904110747863,None,-3703,6.425189971923828,0,-1,0,-4,-5,-1,1,-2,1756998467863250732
0,5.243982315,20250904110747863,None,-3703,6.425189971923828,1,0,-1,-1,-2,-3,-1,0,1756998467863362789
0,5.259020328,20250904110747878,None,-3703,14.040229797363281,0,-2,0,-1,-3,-1,-1,-3,1756998467878347635
0,5.259106636,20250904110747878,None,-3703,14.040229797363281,-1,-3,-2,-2,1,2,0,0,1756998467878475427
0,5.266455412,20250904110747885,None,-3703,8.328949928283691,1,-1,-1,0,-3,-4,1,-1,1756998467885760784
0,5.26655817,20250904110747886,None,-3703,8.328949928283691,-3,-2,0,2,4,-2,-3,0,1756998467885876655
0,5.274277687,20250904110747893,None,-3703,11.898499488830566,-5,-2,-2,0,3,-2,0,-4,1756998467893322467
0,5.274460077,20250904110747893,None,-3703,11.898499488830566,0,0,0,1,3,1,3,2,1756998467893443346
0,5.289273739,20250904110747908,None,-3703,9.04286003112793,-2,0,0,1,-1,-4,0,-2,1756998467908301115
0,5.289468288,20250904110747908,None,-3703,9.04286003112793,-2,3,-1,-4,-5,-4,-1,-3,1756998467908428430
0,5.296694755,20250904110747916,None,-3703,9.04286003112793,0,0,-1,0,0,-1,2,1,1756998467915770530
0,5.297019243,20250904110747916,None,-3703,9.04286003112793,-1,-3,1,-3,-3,-1,-1,0,1756998467915884017
0,5.304321527,20250904110747923,None,-3703,13.088349342346191,-3,0,-1,-3,-2,-4,-5,-1,1756998467923362255
0,5.304503918,20250904110747924,None,-3703,13.088349342346191,-2,-1,-3,-2,2,-2,-1,2,1756998467923514604
0,5.319495678,20250904110747939,None,-3703,14.75413990020752,0,-4,0,-2,0,3,-1,-4,1756998467938736677
0,5.319630384,20250904110747939,None,-3703,14.75413990020752,-1,-5,-2,0,1,0,7,1,1756998467938853979
0,5.326434612,20250904110747945,None,-3703,6.425189971923828,4,0,-3,-1,2,3,-1,-3,1756998467945742368
0,5.326537132,20250904110747946,None,-3703,6.425189971923828,-2,-2,-1,-2,-3,-1,-2,-1,1756998467945849895
0,5.334092855,20250904110747953,None,-3703,6.425189971923828,1,2,5,6,0,-4,0,3,1756998467953348875
0,5.334271669,20250904110747953,None,-3703,6.425189971923828,-4,0,-7,-2,-3,-3,1,-2,1756998467953514575
0,5.349022388,20250904110747968,None,-3703,7.615039825439453,-1,0,-3,-2,-3,0,-1,-3,1756998467968286752
0,5.349158048,20250904110747968,None,-3703,7.615039825439453,-1,3,-2,2,2,1,0,-2,1756998467968423128
0,5.356485843,20250904110747976,None,-3703,12.136469841003418,0,0,-1,-2,0,0,0,2,1756998467975755214
0,5.356610775,20250904110747976,None,-3703,12.136469841003418,-1,-2,-4,-2,1,-3,-5,1,1756998467975865125
0,5.364008665,20250904110747983,None,-3703,9.994739532470703,-1,-1,2,-1,-3,1,3,1,1756998467983276367
0,5.364130497,20250904110747983,None,-3703,9.994739532470703,4,0,-6,1,3,-2,-2,-1,1756998467983393907
0,5.379050255,20250904110747998,None,-3703,9.994739532470703,-2,-2,-1,0,3,-3,0,3,1756998467998335123
0,5.37919712,20250904110747998,None,-3703,9.994739532470703,-3,-3,0,-3,0,1,-4,-6,1756998467998468637
0,5.38659215,20250904110748006,None,-3703,12.612409591674805,1,0,-2,-3,-4,-1,2,-1,1756998468005839824
0,5.386964798,20250904110748006,None,-3703,12.612409591674805,0,-2,0,-2,-2,-1,-2,-3,1756998468006223678
0,5.394411325,20250904110748013,None,-3703,7.139100074768066,-2,-6,-1,-3,2,0,-2,-1,1756998468013675212
0,5.394535065,20250904110748014,None,-3703,7.139100074768066,-1,-1,-3,1,-2,-2,-3,-1,1756998468013881683
0,5.409465551,20250904110748028,None,-3703,6.425189971923828,1,-2,3,-2,-5,-4,-1,0,1756998468028671979
0,5.409574032,20250904110748029,None,-3703,6.425189971923828,0,-4,-1,-1,-3,-2,2,4,1756998468028877496
0,5.416761398,20250904110748036,None,-3703,6.425189971923828,-5,-2,1,2,-1,-3,-2,-2,1756998468035717964
0,5.416927337,20250904110748036,None,-3703,6.425189971923828,-2,1,0,2,0,-5,1,-2,1756998468035847902
0,5.424389124,20250904110748043,None,-3703,14.278200149536133,-1,-1,1,0,-1,-2,-1,0,1756998468043283462
0,5.424676657,20250904110748044,None,-3703,14.278200149536133,-3,-1,0,-1,-2,0,0,0,1756998468043397188
0,5.439533472,20250904110748059,None,-3703,12.612409591674805,0,2,1,-2,0,-2,0,1,1756998468058351278
0,5.439797401,20250904110748059,None,-3703,12.612409591674805,-3,-3,-3,-1,-1,-3,-3,1,1756998468058491468
0,5.447016001,20250904110748066,None,-3703,9.756770133972168,0,-2,-1,1,0,0,6,0,1756998468065761327
0,5.44728899,20250904110748066,None,-3703,9.756770133972168,-1,-2,1,1,-1,0,3,1,1756998468065880298
0,5.4543197150000005,20250904110748073,None,-3703,9.756770133972168,-2,-2,-2,-5,-2,-4,-3,2,1756998468073285579
0,5.454530716,20250904110748074,None,-3703,9.756770133972168,-2,-3,-1,1,1,-1,-1,-2,1756998468073411703
0,5.469455004,20250904110748088,None,-3703,12.374439239501953,-2,-4,-5,-4,-2,1,-2,-1,1756998468088278055
0,5.469883919,20250904110748089,None,-3703,12.374439239501953,1,1,-2,2,0,-1,-1,0,1756998468088403463
0,5.476954222,20250904110748096,None,-3703,7.615039825439453,-5,-2,-3,-2,-3,2,-1,-1,1756998468095748186
0,5.477199077,20250904110748096,None,-3703,7.615039825439453,-2,-2,0,-1,-1,-2,-4,0,1756998468095865249
0,5.484396696,20250904110748103,None,-3703,13.80225944519043,0,1,-1,2,1,-1,-1,2,1756998468103253364
0,5.484610557,20250904110748104,None,-3703,13.80225944519043,-1,0,0,-3,0,1,-2,0,1756998468103363513
0,5.501972198,20250904110748121,None,-3703,6.425189971923828,-3,-3,0,-2,1,-1,1,-3,1756998468118286609
0,5.502351522,20250904110748121,None,-3703,14.75413990020752,-1,-1,0,-3,-2,1,-3,0,1756998468118403911
0,5.506603241,20250904110748126,None,-3703,14.75413990020752,0,2,-2,-6,0,-3,0,2,1756998468125761508
0,5.506743192,20250904110748126,None,-3703,14.75413990020752,-1,2,-1,1,4,1,0,1,1756998468125909805
0,5.5141913890000005,20250904110748133,None,-3703,7.139100074768066,-1,1,-2,-1,-3,-1,-4,2,1756998468133301496
0,5.514368772,20250904110748133,None,-3703,7.139100074768066,0,-2,0,-2,0,-3,-4,0,1756998468133538722
0,5.529159546,20250904110748148,None,-3703,13.326319694519043,0,-1,-1,-3,-1,-3,-1,-2,1756998468148400545
0,5.529417991,20250904110748148,None,-3703,9.518799781799316,0,0,0,-1,0,0,0,-1,1756998468148526906
0,5.536757231,20250904110748156,None,-3703,9.518799781799316,-1,1,0,0,-1,-1,-5,-1,1756998468155731439
0,5.5370171070000005,20250904110748156,None,-3703,9.518799781799316,0,0,0,1,-2,1,1,1,1756998468155863285
0,5.544227361,20250904110748163,None,-3703,10.946619987487793,-4,-5,-1,1,1,1,-3,-2,1756998468163260936
0,5.544414282,20250904110748163,None,-3703,10.946619987487793,-1,-3,-3,1,0,1,-1,-2,1756998468163386106
0,5.559616804,20250904110748179,None,-3703,8.09097957611084,-1,9,3,-2,0,-4,-3,-2,1756998468178392887
0,5.559958696,20250904110748179,None,-3703,8.09097957611084,-1,-2,-1,-2,-2,3,2,-1,1756998468178547859
0,5.56702733,20250904110748186,None,-3703,13.80225944519043,2,0,-1,-2,-14,-1,1,0,1756998468185796976
0,5.567258358,20250904110748186,None,-3703,13.80225944519043,1,-2,-3,-4,9,2,-2,0,1756998468185930013
0,5.574475527,20250904110748194,None,-3703,13.80225944519043,-4,0,-1,-2,1,2,-6,0,1756998468193312883
0,5.574702263,20250904110748194,None,-3703,13.80225944519043,-2,-3,-1,-3,-5,-2,0,3,1756998468193429708
0,5.589498281,20250904110748209,None,-3703,14.75413990020752,0,0,0,6,2,-3,1,0,1756998468208295822
0,5.589754581,20250904110748209,None,-3703,14.75413990020752,-2,0,-3,-5,-1,-3,0,-1,1756998468208450555
0,5.59700799,20250904110748216,None,-3703,6.901129722595215,-1,-1,-2,-4,-4,-1,0,-1,1756998468215770721
0,5.597224951,20250904110748216,None,-3703,6.901129722595215,0,1,0,-2,1,0,1,-1,1756998468215904951
0,5.604525089,20250904110748224,None,-3703,14.040229797363281,-4,0,0,-3,0,2,2,-2,1756998468223338842
0,5.604771137,20250904110748224,None,-3703,14.040229797363281,1,-2,-3,0,-4,-5,0,1,1756998468223506927
0,5.6194663049999996,20250904110748239,None,-3703,9.04286003112793,-1,-1,-2,-1,-2,-4,-1,0,1756998468238313674
0,5.6196997159999995,20250904110748239,None,-3703,9.04286003112793,-2,-2,4,2,0,0,-1,2,1756998468238445281
0,5.626967192,20250904110748246,None,-3703,11.42255973815918,-2,0,-1,0,1,0,1,-4,1756998468245788574
0,5.627183914,20250904110748246,None,-3703,11.42255973815918,1,2,-3,0,3,1,3,-1,1756998468245902299
0,5.634426832,20250904110748253,None,-3703,10.946619987487793,-3,-1,-1,1,4,2,-4,-2,1756998468253279209
0,5.634642601,20250904110748254,None,-3703,10.946619987487793,0,1,0,0,-4,-4,0,-1,1756998468253395318
0,5.6495268339999996,20250904110748269,None,-3703,13.80225944519043,-3,-1,1,1,-3,1,-3,-2,1756998468268333196
0,5.64991188,20250904110748269,None,-3703,13.80225944519043,0,-3,-2,-1,-5,-2,-3,1,1756998468268470048
0,5.656994581,20250904110748276,None,-3703,13.80225944519043,-1,-2,-1,3,2,-2,-2,-1,1756998468275780677
0,5.657199383,20250904110748276,None,-3703,6.901129722595215,-2,-2,-2,-1,0,1,0,0,1756998468275923967
0,5.664567709,20250904110748284,None,-3703,6.901129722595215,-1,0,-2,2,-1,-2,2,0,1756998468283265829
0,5.664812565,20250904110748284,None,-3703,6.901129722595215,-1,-2,-1,-1,-4,-3,-4,0,1756998468283532142
0,5.67999649,20250904110748299,None,-3703,6.6631598472595215,-1,-1,2,-3,-2,0,5,0,1756998468298769712
0,5.6801934240000005,20250904110748299,None,-3703,6.6631598472595215,-1,-2,-3,3,-1,0,2,1,1756998468298912525
0,5.687049627,20250904110748306,None,-3703,14.040229797363281,1,1,-1,-4,1,1,1,2,1756998468305845260
0,5.687290668,20250904110748306,None,-3703,14.040229797363281,-2,-1,-3,1,-3,-1,-2,-5,1756998468305997610
0,5.694489717,20250904110748314,None,-3703,8.328949928283691,-5,-3,-1,-2,-3,-3,-3,-3,1756998468313335180
0,5.694707632,20250904110748314,None,-3703,8.328949928283691,1,2,1,-4,-2,-2,5,0,1756998468313468933
0,5.7177174090000005,20250904110748337,None,-3703,10.708649635314941,-2,-1,0,-4,0,0,0,-1,1756998468336519718
0,5.718029499,20250904110748337,None,-3703,10.708649635314941,1,3,-1,-1,-1,-1,-2,-3,1756998468336663961
0,5.718219042,20250904110748337,None,-3703,10.708649635314941,-1,-1,0,-4,1,0,0,-1,1756998468337280273
0,5.718372822,20250904110748337,None,-3703,10.708649635314941,2,0,2,3,3,1,2,4,1756998468337392091
0,5.724405289,20250904110748343,None,-3703,9.280829429626465,-4,-5,-4,-1,0,-1,-1,0,1756998468343271493
0,5.724605083,20250904110748344,None,-3703,9.280829429626465,-3,-6,-1,-1,-1,-1,-2,-2,1756998468343386888
0,5.739453792,20250904110748358,None,-3703,13.088349342346191,-4,0,-5,1,0,-1,0,-2,1756998468358297109
0,5.739669561,20250904110748359,None,-3703,13.088349342346191,-2,0,3,0,2,-1,0,-5,1756998468358410596
0,5.747002363,20250904110748366,None,-3703,6.6631598472595215,-1,-3,-3,-5,-3,-4,3,-3,1756998468365785121
0,5.7471785539999996,20250904110748366,None,-3703,6.6631598472595215,-1,0,-3,0,-2,0,-3,2,1756998468365897655
0,5.754434585,20250904110748374,None,-3703,14.516169548034668,-1,0,1,-1,-1,0,-2,-3,1756998468373254537
0,5.754684925,20250904110748374,None,-3703,14.516169548034668,-4,2,1,-3,-2,-2,-2,0,1756998468373369455
0,5.769478798,20250904110748389,None,-3703,14.040229797363281,0,0,1,-2,-4,-2,-1,0,1756998468388305187
0,5.769714117,20250904110748389,None,-3703,14.040229797363281,1,-2,-2,0,3,1,-1,1,1756998468388469934
0,5.777002096,20250904110748396,None,-3703,14.040229797363281,0,-1,0,1,3,2,2,-2,1756998468395811080
0,5.777219057,20250904110748396,None,-3703,14.040229797363281,-1,-2,-3,-2,-1,1,2,-2,1756998468395947694
0,5.784471512,20250904110748404,None,-3703,7.8530097007751465,3,-1,-5,0,9,3,0,3,1756998468403316974
0,5.784790277,20250904110748404,None,-3703,7.8530097007751465,-4,-3,-1,1,-3,-2,-2,-6,1756998468403430461
0,5.799714327,20250904110748419,None,-3703,9.994739532470703,0,0,2,2,-2,-2,-2,2,1756998468418502569
0,5.799957752,20250904110748419,None,-3703,9.994739532470703,-2,-3,-2,1,0,0,3,-1,1756998468418696165
0,5.80684495,20250904110748426,None,-3703,9.756770133972168,1,-1,-1,-3,-2,0,0,-2,1756998468425788164
0,5.807001829,20250904110748426,None,-3703,9.756770133972168,2,0,-2,-3,-3,1,2,1,1756998468425928592
0,5.821977377,20250904110748441,None,-3703,13.088349342346191,-2,3,-3,0,-2,0,-4,-1,1756998468440822839
0,5.82227087,20250904110748441,None,-3703,13.088349342346191,-1,0,1,1,0,2,0,-2,1756998468440963983
0,5.829298973,20250904110748448,None,-3703,7.139100074768066,-3,-8,-2,-4,-1,0,-5,-5,1756998468448326587
0,5.829488277,20250904110748449,None,-3703,7.139100074768066,-2,-1,-1,-2,-2,3,1,0,1756998468448461771
0,5.836936712,20250904110748456,None,-3703,14.516169548034668,0,-4,0,-3,0,0,6,0,1756998468455800533
0,5.837227583,20250904110748456,None,-3703,14.516169548034668,-4,-1,-1,0,1,-1,1,-1,1756998468455922365
0,5.844537496,20250904110748464,None,-3703,6.425189971923828,-2,-5,-1,-2,-1,-1,-6,-2,1756998468463341236
0,5.844790697,20250904110748464,None,-3703,6.425189971923828,-1,-3,-5,-4,2,-2,-8,-2,1756998468463465452
0,5.859446049,20250904110748478,None,-3703,14.516169548034668,0,1,-1,-2,-1,1,5,0,1756998468478278875
0,5.859655142,20250904110748479,None,-3703,14.516169548034668,0,-1,3,-4,-7,-2,-3,-1,1756998468478406906
0,5.866972208,20250904110748486,None,-3703,7.37706995010376,-1,-1,2,6,4,1,-1,-5,1756998468485760688
0,5.8671948910000005,20250904110748486,None,-3703,7.37706995010376,-1,-2,0,1,0,-2,-2,2,1756998468485885381
0,5.874515533,20250904110748494,None,-3703,12.374439239501953,-3,-6,-1,-1,-1,-1,-2,-4,1756998468493331193
0,5.874760151,20250904110748494,None,-3703,12.374439239501953,0,0,-3,-3,-3,-1,1,2,1756998468493481397
0,5.889617443,20250904110748509,None,-3703,10.232709884643555,-3,0,-1,-1,2,-2,0,-2,1756998468508413791
0,5.890109062,20250904110748509,None,-3703,10.232709884643555,0,1,-2,-3,-2,-4,1,-2,1756998468508614301
0,5.896975279,20250904110748516,None,-3703,10.232709884643555,-3,-1,0,4,-3,-2,-3,-1,1756998468515789747
0,5.89719224,20250904110748516,None,-3703,10.232709884643555,-4,-5,-5,-3,-1,2,1,0,1756998468515918493
0,5.912002086,20250904110748531,None,-3703,7.37706995010376,1,3,0,-4,1,-1,-4,-2,1756998468530801296
