gt,time_elapsed,current_time,current_task,futek,emg0,emg1,emg2,emg3,emg4,emg5,emg6,emg7,emg_timer_stamp,motor_position
0,0.031243086,20250904110610380,None,231.5447998046875,-4,-2,0,-1,-2,1,-1,-2,1756998370378904104,
0,0.031396866,20250904110610380,None,231.5447998046875,1,3,-5,-3,1,-3,0,-1,1756998370379026651,
0,0.037763119,20250904110610386,None,230.83090209960938,0,4,0,-3,-2,-2,0,-1,1756998370386491298,
0,0.037902832,20250904110610386,None,230.83090209960938,2,0,-4,0,-3,-1,-4,-2,1756998370386626720,
0,0.052668333,20250904110610401,None,231.3068389892578,-4,-4,-5,-4,-3,0,1,2,1756998370401441097,-76.0
0,0.052803039,20250904110610401,None,231.3068389892578,0,-9,0,-2,1,1,-1,3,1756998370401558876,-76.0
0,0.060166836,20250904110610409,None,230.35494995117188,-2,-3,0,-3,-1,-4,-7,-1,1756998370408952474,-76.0
0,0.060312986,20250904110610409,None,230.35494995117188,-1,0,0,-2,-1,6,12,4,1756998370409081935,-76.0
0,0.067582369,20250904110610416,None,230.35494995117188,-1,7,-3,-3,-2,-1,0,-3,1756998370416374444,-76.0
0,0.067676067,20250904110610416,None,230.35494995117188,2,1,-2,0,1,0,-2,-2,1756998370416500329,-76.0
0,0.082648754,20250904110610431,None,230.1169891357422,-2,2,1,-2,1,-2,-1,0,1756998370431427955,-76.0
0,0.08278203,20250904110610431,None,230.1169891357422,-5,-16,-5,-1,2,-1,-4,-4,1756998370431548118,-76.0
0,0.090145826,20250904110610439,None,231.78277587890625,-1,-4,-2,-4,-1,0,-2,-3,1756998370438900232,-76.0
0,0.090292454,20250904110610439,None,231.78277587890625,2,2,3,-2,-1,-4,0,-1,1756998370439018964,-76.0
0,0.097711563,20250904110610446,None,230.35494995117188,3,9,3,-1,-2,0,2,-2,1756998370446462869,-76.0
0,0.097860098,20250904110610446,None,230.35494995117188,-1,-7,1,1,-3,-1,-1,-1,1756998370446613311,-76.0
0,0.113425731,20250904110610462,None,231.5447998046875,-1,-8,-4,-3,-3,0,1,0,1756998370461608409,-76.0
0,0.113700867,20250904110610462,None,231.5447998046875,0,3,1,-1,0,-1,1,0,1756998370461804866,-76.0
0,0.120345115,20250904110610469,None,230.83090209960938,-1,-1,-2,-3,-1,-5,-12,-1,1756998370469006538,-76.0
0,0.120493173,20250904110610469,None,230.83090209960938,-1,0,0,0,0,4,14,-1,1756998370469246864,-76.0
0,0.128121853,20250904110610477,None,231.06886291503906,-2,0,0,-2,-1,-1,-1,0,1756998370476778268,-76.0
0,0.128293037,20250904110610477,None,231.06886291503906,-4,1,2,0,-1,-1,-3,-3,1756998370477005481,-76.0
0,0.142981767,20250904110610492,None,230.83090209960938,-1,-3,2,-1,-2,-1,-2,-3,1756998370491738319,-76.0
0,0.143097639,20250904110610492,None,230.83090209960938,3,0,-3,-1,0,-3,0,0,1756998370491940975,-76.0
0,0.150348425,20250904110610499,None,230.83090209960938,-2,-6,2,-2,1,-1,1,-4,1756998370499140262,-76.0
0,0.150461435,20250904110610499,None,230.83090209960938,-1,-2,0,0,0,-1,2,0,1756998370499274969,-76.0
0,0.158364534,20250904110610507,None,231.5447998046875,2,0,0,-1,-3,-1,0,-1,1756998370506982088,-76.0
0,0.158616066,20250904110610507,None,231.5447998046875,-3,-8,2,0,1,-2,-3,2,1756998370507189750,-76.0
0,0.172997474,20250904110610522,None,232.020751953125,1,4,-1,3,-1,-3,-1,-1,1756998370521535634,-76.0
0,0.173133135,20250904110610522,None,232.020751953125,2,2,0,-1,0,1,-1,2,1756998370521908044,-76.0
0,0.180282116,20250904110610529,None,230.59292602539062,1,1,-1,0,-3,1,-1,-2,1756998370529029369,-76.0
0,0.180434942,20250904110610529,None,230.59292602539062,-2,-5,0,-3,-2,-3,-9,-6,1756998370529167890,-76.0
0,0.187754631,20250904110610536,None,230.59292602539062,1,5,1,-1,5,4,11,7,1756998370536446094,-76.0
0,0.187907219,20250904110610536,None,230.59292602539062,-2,-2,-2,-2,-1,0,-2,1,1756998370536585807,-76.0
0,0.202977419,20250904110610552,None,230.59292602539062,-2,-5,1,0,1,-4,-4,-2,1756998370551658153,-76.0
0,0.203146219,20250904110610552,None,230.59292602539062,-2,-9,-3,-4,-2,-3,1,-1,1756998370551835298,-76.0
0,0.210333586,20250904110610559,None,231.3068389892578,-1,-3,-3,-4,-4,-5,-2,0,1756998370558947801,-76.0
0,0.21049118,20250904110610559,None,231.3068389892578,2,-1,1,0,0,0,0,-3,1756998370559104919,-76.0
0,0.217663765,20250904110610566,None,231.06886291503906,3,14,-3,0,-2,-1,1,1,1756998370566455602,-76.0
0,0.217821359,20250904110610566,None,231.06886291503906,1,-7,-1,-5,1,-1,0,-1,1756998370566599369,-76.0
0,0.232928991,20250904110610581,None,231.06886291503906,-3,-8,-1,2,-1,-1,-3,-1,1756998370581681013,-76.0
0,0.233069897,20250904110610582,None,231.06886291503906,0,4,0,1,-1,-2,-2,-1,1756998370581893444,-76.0
0,0.240350246,20250904110610589,None,231.5447998046875,1,6,1,0,0,-3,0,3,1756998370589012622,-76.0
0,0.240539789,20250904110610589,None,231.5447998046875,0,2,-4,-5,-2,-3,1,-1,1756998370589146852,-76.0
0,0.247740984,20250904110610596,None,230.35494995117188,-2,-5,-1,1,1,0,-4,-1,1756998370596436023,-76.0
0,0.247942686,20250904110610596,None,230.35494995117188,-1,-1,-3,2,0,-2,-7,-2,1756998370596675395,-76.0
0,0.26267457,20250904110610611,None,230.1169891357422,1,-1,0,-3,-2,1,3,1,1756998370611465692,-76.0
0,0.262829304,20250904110610611,None,230.1169891357422,-1,-4,-2,0,-1,-3,0,0,1756998370611602783,-76.0
0,0.270239591,20250904110610619,None,230.1169891357422,-3,-2,-2,-3,-6,0,-5,0,1756998370619012594,-76.0
0,0.270391464,20250904110610619,None,230.1169891357422,-1,-1,1,-2,-2,1,2,0,1756998370619152784,-76.0
0,0.277683735,20250904110610626,None,231.5447998046875,-4,-3,-4,-1,0,-4,-4,-1,1756998370626493692,-76.0
0,0.277854204,20250904110610626,None,231.5447998046875,2,2,0,1,2,0,-1,-2,1756998370626641988,-76.0
0,0.292752743,20250904110610641,None,231.3068389892578,-4,-6,-1,0,-4,1,-3,0,1756998370641503810,-76.0
0,0.29293704,20250904110610641,None,231.3068389892578,-1,1,-1,1,-3,-3,-2,-1,1756998370641664743,-76.0
0,0.30029726,20250904110610649,None,231.06886291503906,3,0,-1,-2,-1,4,3,3,1756998370649006128,-76.0
0,0.300563812,20250904110610649,None,231.06886291503906,-1,0,2,3,0,-2,-4,-4,1756998370649154901,-76.0
0,0.307687282,20250904110610656,None,231.06886291503906,-3,-5,-2,0,1,-3,0,-1,1756998370656483888,-76.0
0,0.30779171,20250904110610656,None,231.06886291503906,1,-2,-2,0,3,0,0,-2,1756998370656637907,-76.0
0,0.322454452,20250904110610671,None,231.5447998046875,-1,1,-3,-3,-2,-3,-11,-3,1756998370671350240,-76.0
0,0.322539329,20250904110610671,None,231.5447998046875,2,-2,-1,0,-1,3,14,4,1756998370671453714,-76.0
0,0.338398933,20250904110610687,None,231.78277587890625,-3,-2,-4,-1,-3,-1,-3,-1,1756998370687123298,-76.0
0,0.33855772,20250904110610687,None,231.78277587890625,0,2,0,1,-4,-2,1,0,1756998370687288522,-76.0
0,0.339095592,20250904110610688,None,231.78277587890625,-3,-3,0,-1,-1,-1,-3,-1,1756998370687953710,-76.0
0,0.339231252,20250904110610688,None,231.78277587890625,0,1,-3,1,0,-4,-3,-1,1756998370688077211,-76.0
0,0.352725506,20250904110610701,None,230.35494995117188,2,5,1,1,0,2,4,4,1756998370701489686,-76.0
0,0.352878094,20250904110610701,None,230.35494995117188,1,3,-2,0,-1,0,0,3,1756998370701664447,-76.0
0,0.36027956,20250904110610709,None,232.020751953125,2,-1,-2,-1,0,-1,-1,0,1756998370709026575,-77.0
0,0.360415697,20250904110610709,None,232.020751953125,-1,0,0,-1,-3,-1,-2,3,1756998370709197759,-77.0
0,0.367711305,20250904110610716,None,230.35494995117188,-3,-15,-3,-2,2,-3,-2,-1,1756998370716470718,-76.0
0,0.367864847,20250904110610716,None,230.35494995117188,-1,-3,-2,0,-2,-1,-3,-3,1756998370716649770,-76.0
0,0.383057356,20250904110610732,None,230.83090209960938,1,5,0,0,2,0,0,-3,1756998370731805801,-76.0
0,0.383274317,20250904110610732,None,230.83090209960938,-2,-1,2,1,2,-2,0,-1,1756998370731978178,-76.0
0,0.390283346,20250904110610739,None,230.83090209960938,3,-1,-4,-3,-2,-2,2,1,1756998370739053964,-76.0
0,0.390423536,20250904110610739,None,230.83090209960938,2,8,-2,3,0,0,-8,-1,1756998370739204168,-76.0
0,0.397744894,20250904110610746,None,230.83090209960938,0,-7,-1,3,-1,4,12,0,1756998370746487617,-76.0
0,0.397892475,20250904110610746,None,230.83090209960938,1,-6,-1,-2,-1,0,-1,0,1756998370746639251,-76.0
0,0.412771702,20250904110610761,None,230.35494995117188,-1,10,-2,-1,1,1,0,1,1756998370761513710,-76.0
0,0.41294527,20250904110610761,None,230.35494995117188,-2,-8,-2,-1,-1,-1,1,-1,1756998370761669874,-76.0
0,0.420300245,20250904110610769,None,231.78277587890625,0,-3,0,-2,-1,-1,-1,-2,1756998370769049167,-76.0
0,0.420447349,20250904110610769,None,231.78277587890625,1,6,1,1,1,-1,-1,-3,1756998370769201040,-76.0
0,0.427608967,20250904110610776,None,231.78277587890625,2,-5,1,-2,1,1,0,-5,1756998370776429891,-76.0
0,0.42775774,20250904110610776,None,231.78277587890625,-3,-1,0,-2,-3,-3,-4,-1,1756998370776569366,-76.0
0,0.442766428,20250904110610791,None,231.78277587890625,-1,-7,-2,3,-3,-2,0,1,1756998370791499376,-76.0
0,0.442941665,20250904110610791,None,231.78277587890625,0,4,-2,0,-3,-3,2,1,1756998370791685819,-76.0
0,0.450179577,20250904110610799,None,230.1169891357422,-1,3,3,-2,-3,2,-3,0,1756998370798961639,-76.0
0,0.450336933,20250904110610799,None,230.1169891357422,-3,1,-3,-2,-2,-1,2,-2,1756998370799100399,-76.0
0,0.457767486,20250904110610806,None,231.3068389892578,1,-5,-3,0,1,-2,-4,-3,1756998370806540250,-76.0
0,0.457909822,20250904110610806,None,231.3068389892578,0,-6,0,0,-1,1,-2,1,1756998370806695699,-76.0
0,0.472713709,20250904110610821,None,230.35494995117188,-2,-3,2,2,2,1,3,3,1756998370821511268,-76.0
0,0.472856283,20250904110610821,None,230.35494995117188,0,3,0,-1,-2,-1,-1,-2,1756998370821661233,-76.0
0,0.480381489,20250904110610829,None,231.06886291503906,-2,-3,-3,1,1,0,-3,-1,1756998370829037427,-76.0
0,0.480511904,20250904110610829,None,231.06886291503906,-1,-3,2,-1,-2,0,-3,-1,1756998370829179048,-76.0
0,0.487710714,20250904110610836,None,231.5447998046875,1,0,-2,-2,-1,-2,1,0,1756998370836435794,-76.0
0,0.487910271,20250904110610836,None,231.5447998046875,-2,1,0,1,-2,1,0,1,1756998370836596965,-76.0
0,0.50282979,20250904110610851,None,231.5447998046875,-1,-2,0,-2,-3,2,0,1,1756998370851538658,-76.0
0,0.503009319,20250904110610852,None,231.5447998046875,-2,3,-2,-3,0,-1,1,-1,1756998370851721525,-76.0
0,0.510215759,20250904110610859,None,231.5447998046875,2,1,1,2,-5,-3,-1,2,1756998370859010219,-76.0
0,0.510358572,20250904110610859,None,231.5447998046875,0,-5,-1,0,-2,-1,-1,-1,1756998370859153509,-76.0
0,0.517766952,20250904110610866,None,230.35494995117188,-2,2,0,-1,-2,0,-1,-2,1756998370866495132,-76.0
0,0.51793766,20250904110610866,None,230.35494995117188,-2,-1,3,-2,1,4,-2,-1,1756998370866652011,-76.0
0,0.532964229,20250904110610882,None,230.59292602539062,-2,-9,-3,-2,-1,-2,-2,-1,1756998370881717920,-76.0
0,0.533122063,20250904110610882,None,230.59292602539062,0,-5,-2,0,-1,-4,-7,-3,1756998370881879806,-76.0
0,0.540244579,20250904110610889,None,231.5447998046875,2,10,-1,0,-5,2,12,2,1756998370889011144,-76.0
0,0.540558576,20250904110610889,None,231.5447998046875,-3,-4,-1,0,0,1,-1,-1,1756998370889146566,-76.0
0,0.547510385,20250904110610896,None,231.5447998046875,-1,-7,-2,2,0,-1,-2,-2,1756998370896345138,-76.0
0,0.547624349,20250904110610896,None,231.5447998046875,-1,6,0,-4,-1,-3,-1,-2,1756998370896456956,-76.0
0,0.562701464,20250904110610911,None,231.06886291503906,-2,-5,-1,-2,-1,2,-1,-1,1756998370911506175,-76.0
0,0.562828541,20250904110610911,None,231.06886291503906,-2,-3,0,2,2,-2,-5,-1,1756998370911645650,-76.0
0,0.570117473,20250904110610919,None,231.3068389892578,1,5,1,-4,-4,-3,-1,-1,1756998370918935060,-76.0
0,0.570215702,20250904110610919,None,231.3068389892578,1,-1,-3,0,0,-1,-2,0,1756998370919073581,-76.0
0,0.577972174,20250904110610927,None,230.83090209960938,-3,-1,-4,-1,-6,-4,0,-3,1756998370926532506,-76.0
0,0.578178167,20250904110610927,None,230.83090209960938,0,0,-2,1,-3,-1,0,0,1756998370926690816,-76.0
0,0.592660904,20250904110610941,None,232.020751953125,1,3,0,2,0,0,-1,-4,1756998370941424846,-76.0
0,0.592796564,20250904110610941,None,232.020751953125,0,-2,-2,1,0,-5,-4,2,1756998370941624879,-76.0
0,0.600282669,20250904110610949,None,230.35494995117188,-1,-5,-1,-3,3,6,12,2,1756998370949026346,-76.0
0,0.600423574,20250904110610949,None,230.35494995117188,-2,-1,-2,-2,-2,0,1,3,1756998370949169397,-76.0
0,0.607597828,20250904110610956,None,231.78277587890625,-3,-1,0,1,-3,-4,-3,-1,1756998370956419229,-76.0
0,0.607726097,20250904110610956,None,231.78277587890625,-1,-8,-2,-1,-4,-2,1,-2,1756998370956534862,-76.0
0,0.623086691,20250904110610972,None,232.020751953125,0,13,1,-1,0,1,-1,0,1756998370971539735,-76.0
0,0.623344183,20250904110610972,None,232.020751953125,-3,-3,-1,3,2,-4,4,-2,1756998370971710920,-76.0
0,0.630185842,20250904110610979,None,232.020751953125,0,-7,-1,-1,0,2,-3,1,1756998370978976249,-76.0
0,0.630317926,20250904110610979,None,232.020751953125,4,9,1,0,0,0,-2,0,1756998370979097127,-76.0
0,0.63768816,20250904110610986,None,230.83090209960938,-5,-10,-4,0,-1,-2,-2,-2,1756998370986505985,-76.0
0,0.637802124,20250904110610986,None,230.83090209960938,-1,-3,-2,-3,-2,-1,-3,-3,1756998370986643791,-76.0
0,0.652664184,20250904110611001,None,231.06886291503906,2,7,2,-3,-1,-2,1,2,1756998371001469850,-76.0
0,0.652768135,20250904110611001,None,231.06886291503906,3,-7,0,-2,1,1,2,1,1756998371001607179,-76.0
0,0.66011548,20250904110611009,None,230.59292602539062,-3,4,0,1,0,-3,-6,-3,1756998371008996009,-76.0
0,0.660222292,20250904110611009,None,230.59292602539062,-3,-1,1,-1,-2,-4,-6,-2,1756998371009115457,-76.0
0,0.667626142,20250904110611016,None,230.59292602539062,0,-5,1,-1,0,1,15,2,1756998371016462564,-76.0
0,0.667832136,20250904110611016,None,230.59292602539062,0,0,0,-1,-3,0,-2,0,1756998371016592502,-76.0
0,0.682883501,20250904110611031,None,230.59292602539062,-1,4,-2,0,-1,-3,-2,-3,1756998371031659603,-76.0
0,0.682995796,20250904110611032,None,230.59292602539062,1,2,0,1,-1,-4,-4,1,1756998371031821012,-76.0
0,0.690191746,20250904110611039,None,231.5447998046875,-5,-1,-2,-2,2,1,-4,-3,1756998371039001703,-76.0
0,0.690472603,20250904110611039,None,231.5447998046875,-4,-2,0,-4,-2,-1,-1,2,1756998371039143323,-76.0
0,0.697726726,20250904110611046,None,230.35494995117188,1,-1,-3,-2,0,1,0,1,1756998371046484470,-76.0
0,0.697894811,20250904110611046,None,230.35494995117188,3,2,-2,-1,1,-2,1,0,1756998371046640157,-76.0
0,0.712818146,20250904110611061,None,232.020751953125,-3,4,0,0,3,0,-2,0,1756998371061548233,-76.0
0,0.712999344,20250904110611062,None,232.020751953125,-4,-10,0,-1,0,0,-1,-2,1756998371061743497,-76.0
0,0.720221281,20250904110611069,None,230.83090209960938,-1,-12,-1,0,2,2,-1,-1,1756998371069005012,-76.0
0,0.720345259,20250904110611069,None,230.83090209960938,-2,-5,-1,-2,-2,-1,0,0,1756998371069138288,-76.0
0,0.72764802,20250904110611076,None,231.3068389892578,2,2,-1,1,-3,-5,-8,-1,1756998371076458692,-76.0
0,0.727783203,20250904110611076,None,231.3068389892578,1,2,0,1,1,3,13,1,1756998371076596260,-76.0
0,0.750847101,20250904110611099,None,231.3068389892578,-2,1,-1,-2,0,2,2,-2,1756998371099573135,-76.0
0,0.750988006,20250904110611100,None,231.3068389892578,2,-1,-2,-2,-2,-3,-2,-1,1756998371099712610,-76.0
0,0.751481056,20250904110611100,None,231.3068389892578,-2,9,1,4,0,-1,-2,0,1756998371100369215,-76.0
0,0.751601219,20250904110611100,None,231.3068389892578,-4,-12,-5,-1,-3,0,-2,0,1756998371100484609,-76.0
0,0.757699251,20250904110611106,None,231.3068389892578,-1,-4,-2,-5,1,-5,-1,-3,1756998371106417417,-76.0
0,0.757811785,20250904110611106,None,231.3068389892578,2,6,0,-2,1,0,5,1,1756998371106536626,-76.0
0,0.772867203,20250904110611121,None,231.5447998046875,1,3,-2,-4,2,-3,-1,2,1756998371121528625,-76.0
0,0.773082256,20250904110611122,None,231.5447998046875,0,5,2,0,-2,-1,-1,0,1756998371121677637,-76.0
0,0.780156851,20250904110611129,None,230.1169891357422,2,-10,-3,3,-1,-1,0,-1,1756998371128988265,-76.0
0,0.780290365,20250904110611129,None,230.1169891357422,1,2,1,-2,0,1,-3,0,1756998371129116773,-76.0
0,0.787779808,20250904110611136,None,231.78277587890625,-2,0,-2,-1,-1,1,0,-1,1756998371136503219,-76.0
0,0.787914991,20250904110611136,None,231.78277587890625,-1,5,-3,-1,1,-1,-6,2,1756998371136646747,-76.0
0,0.802906036,20250904110611151,None,230.35494995117188,0,-6,-2,-3,-1,6,14,3,1756998371151632308,-76.0
0,0.803046226,20250904110611152,None,230.35494995117188,0,-6,-1,-1,2,0,2,2,1756998371151819467,-76.0
0,0.810361385,20250904110611159,None,231.3068389892578,-2,-2,1,-1,-2,-2,-2,-1,1756998371159167528,-76.0
0,0.810427666,20250904110611159,None,231.3068389892578,-3,-2,1,-3,-2,-3,-1,1,1756998371159357786,-76.0
0,0.817902326,20250904110611166,None,230.83090209960938,-1,2,2,-3,1,-2,-2,0,1756998371166675090,-76.0
0,0.818003177,20250904110611167,None,230.83090209960938,2,6,1,0,-3,-1,-3,-1,1756998371166870594,-76.0
0,0.833101988,20250904110611182,None,231.06886291503906,2,0,-4,1,-2,-2,1,1,1756998371181864500,-76.0
0,0.833271026,20250904110611182,None,231.06886291503906,-3,-4,-2,-3,-1,-3,-3,-1,1756998371182029485,-76.0
0,0.840224981,20250904110611189,None,231.5447998046875,0,2,2,1,0,-3,-2,-1,1756998371189001560,-76.0
0,0.840376854,20250904110611189,None,231.5447998046875,-1,0,-3,-2,-3,-1,-3,-1,1756998371189125061,-76.0
0,0.847720146,20250904110611196,None,230.59292602539062,-1,-3,-5,4,4,2,-2,1,1756998371196489572,-76.0
0,0.8478446,20250904110611196,None,230.59292602539062,0,-2,2,-4,0,2,1,1,1756998371196624755,-76.0
0,0.862693071,20250904110611211,None,230.35494995117188,0,1,0,0,-2,-5,-6,-3,1756998371211476325,-76.0
0,0.862821579,20250904110611211,None,230.35494995117188,-1,8,0,0,-1,2,0,0,1756998371211608648,-76.0
0,0.870153904,20250904110611219,None,230.35494995117188,-1,-5,3,-1,-2,4,8,2,1756998371218973875,-76.0
0,0.87028408,20250904110611219,None,230.35494995117188,-5,-9,-2,0,-3,-4,-3,2,1756998371219090461,-76.0
0,0.877941131,20250904110611226,None,231.78277587890625,-1,-2,-1,0,-2,-3,-1,0,1756998371226705074,-76.0
0,0.878224373,20250904110611227,None,231.78277587890625,0,5,0,-2,-3,0,-2,-2,1756998371226958036,-76.0
0,0.892985344,20250904110611242,None,231.5447998046875,0,4,0,-3,-1,-1,-1,-5,1756998371241561174,-76.0
0,0.893166065,20250904110611242,None,231.5447998046875,-2,-9,-2,-2,-4,-2,-1,1,1756998371241898059,-76.0
0,0.90015006,20250904110611249,None,230.83090209960938,-1,-1,-2,-1,-2,-1,-1,1,1756998371248983621,-76.0
0,0.900268316,20250904110611249,None,230.83090209960938,-2,0,0,0,0,0,-2,1,1756998371249129056,-76.0
0,0.915109634,20250904110611264,None,231.06886291503906,-3,4,0,2,0,-2,-1,-2,1756998371263970375,-76.0
0,0.915229559,20250904110611264,None,231.06886291503906,-2,-6,-2,-1,-1,-1,0,0,1756998371264086961,-76.0
0,0.922887325,20250904110611271,None,231.06886291503906,0,-4,-4,-3,-1,-1,1,-1,1756998371271476030,-76.0
0,0.923036814,20250904110611272,None,231.06886291503906,-1,2,2,0,-2,-2,-5,-3,1756998371271624565,-76.0
0,0.930429458,20250904110611279,None,230.35494995117188,1,-3,1,-4,-1,4,-4,0,1756998371278967857,-76.0
0,0.930607319,20250904110611279,None,230.35494995117188,-1,0,0,-3,0,0,3,0,1756998371279092788,-76.0
0,0.945308447,20250904110611294,None,230.35494995117188,2,2,1,-2,-1,0,1,1,1756998371294040918,-76.0
0,0.94547224,20250904110611294,None,230.35494995117188,0,2,-1,-2,-2,0,-2,-3,1756998371294199228,-76.0
0,0.952929497,20250904110611301,None,230.35494995117188,-4,-8,0,-7,-3,-3,1,-3,1756998371301620960,-76.0
0,0.953090668,20250904110611302,None,230.35494995117188,0,-3,-4,3,-1,-3,-4,1,1756998371301843404,-76.0
0,0.960174322,20250904110611309,None,232.020751953125,1,6,-1,-1,-2,1,-1,0,1756998371308980464,-76.0
0,0.960296869,20250904110611309,None,232.020751953125,0,6,-1,0,-1,0,0,-2,1756998371309109210,-76.0
0,0.975222826,20250904110611324,None,231.5447998046875,-4,-13,0,-3,-2,2,3,-2,1756998371324006795,-76.0
0,0.97531724,20250904110611324,None,231.5447998046875,1,7,1,1,-1,-4,0,-1,1756998371324145078,-76.0
0,0.982735157,20250904110611331,None,230.83090209960938,-2,-2,3,-2,-3,-2,-2,-2,1756998371331583738,-76.0
0,0.983341932,20250904110611332,None,230.83090209960938,-1,-8,-4,1,1,0,-1,2,1756998371331706285,-76.0
0,0.990735054,20250904110611339,None,230.83090209960938,-4,1,0,-3,0,-5,-5,-1,1756998371339171648,-76.0
0,0.990961551,20250904110611340,None,230.83090209960938,-1,9,1,-1,-1,1,14,4,1756998371339375734,-76.0
0,1.005681991,20250904110611354,None,231.06886291503906,-4,-10,-2,0,1,2,0,0,1756998371354195594,-76.0
0,1.005890846,20250904110611354,None,231.06886291503906,-3,-4,-3,-3,0,-4,0,-4,1756998371354444980,-76.0
0,1.013400078,20250904110611362,None,230.83090209960938,3,3,1,1,0,-3,-2,0,1756998371361674070,-76.0
0,1.013688087,20250904110611362,None,230.83090209960938,0,0,1,1,2,2,1,-3,1756998371361839294,-76.0
0,1.020614624,20250904110611369,None,231.78277587890625,-1,-3,-2,1,1,-1,-4,1,1756998371369130849,-76.0
0,1.020796537,20250904110611369,None,231.78277587890625,-3,-3,0,-2,0,-1,-4,0,1756998371369263648,-76.0
0,1.035566807,20250904110611384,None,230.35494995117188,0,-2,0,1,-1,-2,-1,-3,1756998371384168148,-76.0
0,1.035783768,20250904110611384,None,230.35494995117188,1,1,0,-1,0,2,-3,-2,1756998371384438276,-76.0
0,1.042955398,20250904110611392,None,231.78277587890625,1,1,1,-4,-3,-1,1,-2,1756998371391476631,-76.0
0,1.043134212,20250904110611392,None,231.78277587890625,-2,-12,-1,-6,-1,0,-1,0,1756998371391611576,-76.0
0,1.050531387,20250904110611399,None,230.59292602539062,1,3,-2,-5,-1,-1,-1,1,1756998371399063587,-76.0
0,1.050676107,20250904110611399,None,230.59292602539062,-2,-4,-3,0,-3,1,-4,-1,1756998371399245738,-76.0
0,1.065493345,20250904110611414,None,230.59292602539062,0,-5,-3,-2,1,-2,-5,-1,1756998371414066791,-76.0
0,1.065662384,20250904110611414,None,230.59292602539062,-1,2,0,-1,-1,-7,-4,-4,1756998371414249420,-76.0
0,1.073083401,20250904110611422,None,230.59292602539062,2,5,-1,-3,-1,3,6,-1,1756998371421648979,-76.0
0,1.073247671,20250904110611422,None,230.59292602539062,-3,-5,-2,-2,-3,-1,-1,1,1756998371421838998,-76.0
0,1.080859661,20250904110611429,None,231.3068389892578,0,-1,0,0,3,-1,1,1,1756998371429302930,-76.0
0,1.081019401,20250904110611430,None,231.3068389892578,-2,-5,-1,-1,0,-3,-3,-3,1756998371429510593,-76.0
0,1.095656395,20250904110611444,None,230.83090209960938,1,7,-2,-4,-2,3,1,2,1756998371444203853,-76.0
0,1.095806837,20250904110611444,None,230.83090209960938,2,-3,-3,-2,-4,-2,-1,-2,1756998371444389581,-76.0
0,1.103043794,20250904110611452,None,231.78277587890625,-3,-9,-1,-3,1,-1,-4,-3,1756998371451612949,-76.0
0,1.10323739,20250904110611452,None,231.78277587890625,1,5,-3,-1,-2,0,-1,0,1756998371451802968,-76.0
0,1.110810757,20250904110611459,None,230.1169891357422,3,5,-1,-1,0,1,-1,-1,1756998371459169626,-76.0
0,1.110990286,20250904110611460,None,230.1169891357422,-1,-6,2,2,-2,-1,-4,-1,1756998371459380388,-76.0
0,1.125689983,20250904110611474,None,231.78277587890625,-3,-1,-3,-4,-3,1,0,-1,1756998371474191904,-76.0
0,1.12587595,20250904110611474,None,231.78277587890625,-2,0,3,1,-3,-5,-7,-1,1756998371474416494,-76.0
0,1.133141756,20250904110611482,None,230.1169891357422,0,-1,-3,1,1,5,10,0,1756998371481648921,-76.0
0,1.133640051,20250904110611482,None,230.1169891357422,1,7,0,-4,-1,3,-1,-1,1756998371481842994,-76.0
0,1.140660286,20250904110611489,None,231.5447998046875,-4,-5,-3,0,-3,-2,-2,-4,1756998371489172935,-76.0
0,1.140858173,20250904110611489,None,231.5447998046875,-1,-4,-1,0,-2,-3,-3,0,1756998371489485979,-76.0
0,1.155780315,20250904110611504,None,230.83090209960938,-2,1,-2,3,-1,-1,0,1,1756998371504185676,-77.0
0,1.156001329,20250904110611505,None,231.3068389892578,-2,2,-4,-3,-3,1,-4,0,1756998371504410982,-77.0
0,1.163238287,20250904110611512,None,231.3068389892578,1,1,0,1,-1,1,3,2,1756998371511646032,-77.0
0,1.16347909,20250904110611512,None,231.3068389892578,0,0,1,-1,-2,1,0,-1,1756998371511834144,-77.0
0,1.170591831,20250904110611519,None,231.3068389892578,0,2,-3,-3,-1,-3,-2,-2,1756998371519050836,-76.0
0,1.170769691,20250904110611519,None,231.3068389892578,-2,-1,-1,1,0,-1,-2,1,1756998371519203186,-76.0
0,1.1851842399999999,20250904110611534,None,231.3068389892578,-1,-6,-5,-1,2,-1,-2,-2,1756998371533959150,-76.0
0,1.185296774,20250904110611534,None,231.3068389892578,3,2,0,-1,0,2,2,1,1756998371534072160,-76.0
0,1.192680836,20250904110611541,None,231.3068389892578,-2,-2,2,0,1,-3,-7,-3,1756998371541475534,-76.0
0,1.192814588,20250904110611541,None,231.3068389892578,-1,-2,-2,-2,1,0,6,1,1756998371541604757,-76.0
0,1.2001101969999999,20250904110611549,None,230.1169891357422,1,8,1,-3,-1,1,1,-1,1756998371548965215,-76.0
0,1.200195789,20250904110611549,None,230.1169891357422,0,-3,0,-2,-2,-4,0,2,1756998371549076795,-76.0
0,1.215251207,20250904110611564,None,230.35494995117188,1,-9,0,0,-1,1,-1,0,1756998371564034461,-76.0
0,1.215376139,20250904110611564,None,230.35494995117188,-2,8,0,-1,-4,0,-4,-3,1756998371564171314,-76.0
0,1.222616911,20250904110611571,None,231.5447998046875,-4,-4,-1,-2,0,-2,1,-3,1756998371571467638,-76.0
0,1.2226974959999999,20250904110611571,None,231.5447998046875,-3,-12,-5,-2,-1,1,-1,-1,1756998371571586370,-76.0
0,1.230162382,20250904110611579,None,230.35494995117188,-2,2,-3,1,-1,-3,-3,0,1756998371579009294,-76.0
0,1.230253219,20250904110611579,None,230.35494995117188,0,0,-2,-1,0,-1,0,-2,1756998371579134464,-76.0
0,1.245220661,20250904110611594,None,231.5447998046875,-2,-1,0,-2,1,1,-2,-2,1756998371594018697,-76.0
0,1.245345354,20250904110611594,None,231.5447998046875,-2,3,1,-2,-4,0,0,-4,1756998371594141960,-76.0
0,1.252608537,20250904110611601,None,231.06886291503906,1,5,-3,0,1,-3,-1,-1,1756998371601451873,-76.0
0,1.252682924,20250904110611601,None,231.06886291503906,1,0,-2,1,-1,1,-9,-2,1756998371601571559,-76.0
0,1.260084629,20250904110611609,None,231.3068389892578,3,-5,-3,2,3,6,12,0,1756998371608948469,-76.0
0,1.260158539,20250904110611609,None,231.3068389892578,-3,1,-1,-2,-1,-4,-1,-1,1756998371609050512,-76.0
0,1.27514863,20250904110611624,None,231.5447998046875,2,1,1,0,-2,-1,-3,-3,1756998371623990535,-76.0
0,1.275316238,20250904110611624,None,231.5447998046875,-3,-3,1,-2,2,0,-4,1,1756998371624172449,-76.0
0,1.282599687,20250904110611631,None,230.59292602539062,0,4,-5,1,1,-2,1,0,1756998371631443023,-76.0
0,1.282693386,20250904110611631,None,230.59292602539062,-1,0,-1,1,1,-1,-6,-3,1756998371631587982,-76.0
0,1.290291071,20250904110611639,None,232.020751953125,0,-2,-3,-1,2,1,-2,1,1756998371639031410,-76.0
0,1.290373325,20250904110611639,None,232.020751953125,-1,-6,-4,-5,-3,2,-1,1,1756998371639179229,-76.0
0,1.305247068,20250904110611654,None,232.020751953125,2,7,-2,1,0,-1,0,0,1756998371654024124,-76.0
0,1.30535078,20250904110611654,None,232.020751953125,-4,-3,-1,-1,-1,-3,-5,-2,1756998371654168367,-76.0
0,1.312582731,20250904110611661,None,232.020751953125,-3,-5,-2,-1,-1,0,1,-2,1756998371661452770,-76.0
0,1.312664747,20250904110611661,None,232.020751953125,2,3,0,-1,-1,2,-2,0,1756998371661578178,-76.0
0,1.320069551,20250904110611669,None,230.35494995117188,-2,-7,-5,-4,-2,0,-2,-2,1756998371668952226,-76.0
0,1.320140123,20250904110611669,None,230.35494995117188,-3,5,-4,-1,-4,-3,-7,-1,1756998371669058322,-76.0
0,1.335227251,20250904110611684,None,230.83090209960938,3,-8,1,-1,-4,3,1,3,1756998371684016704,-76.0
0,1.33533144,20250904110611684,None,230.83090209960938,0,4,-1,-4,-1,4,5,1,1756998371684147119,-76.0
0,1.342618465,20250904110611691,None,231.06886291503906,-3,3,1,3,-1,0,-2,0,1756998371691442966,-76.0
0,1.342713117,20250904110611691,None,231.06886291503906,0,-5,-1,-1,-1,-3,-2,-1,1756998371691563844,-76.0
0,1.350130081,20250904110611699,None,230.83090209960938,0,-3,0,-2,0,-1,-1,2,1756998371698974370,-76.0
0,1.350317478,20250904110611699,None,230.83090209960938,-4,0,1,0,1,0,-3,-3,1756998371699091911,-76.0
0,1.365195751,20250904110611714,None,230.59292602539062,0,-1,-1,-2,1,-1,-2,-3,1756998371713994741,-76.0
0,1.365362644,20250904110611714,None,230.59292602539062,-1,-2,2,-3,0,-2,2,0,1756998371714184045,-76.0
0,1.372851372,20250904110611721,None,232.020751953125,-2,1,-2,-2,-3,-3,-2,0,1756998371721629619,-76.0
0,1.3729660510000001,20250904110611722,None,232.020751953125,1,3,-3,-3,0,0,-1,1,1756998371721826076,-76.0
0,1.380146503,20250904110611729,None,230.35494995117188,-4,-10,-2,2,-2,0,0,1,1756998371729001045,-76.0
0,1.380234718,20250904110611729,None,230.35494995117188,-2,-4,2,2,-2,-2,1,0,1756998371729124307,-76.0
0,1.395136118,20250904110611744,None,231.78277587890625,-3,4,-1,1,-1,-5,-7,-5,1756998371743967056,-77.0
0,1.395257234,20250904110611744,None,231.78277587890625,-2,-8,1,2,1,2,3,1,1756998371744092226,-77.0
0,1.402564525,20250904110611751,None,230.35494995117188,1,-3,0,-2,1,1,2,1,1756998371751408100,-76.0
0,1.40264821,20250904110611751,None,230.35494995117188,0,2,1,-2,-2,-3,0,0,1756998371751526117,-76.0
0,1.410124063,20250904110611759,None,231.5447998046875,-1,0,0,1,0,1,-2,-1,1756998371758976936,-77.0
0,1.410194158,20250904110611759,None,231.5447998046875,-2,6,-1,-3,-6,-4,-3,-4,1756998371759089708,-77.0
0,1.425165891,20250904110611774,None,230.83090209960938,-1,-6,-3,2,1,0,1,-2,1756998371774000644,-76.0
0,1.425272465,20250904110611774,None,230.83090209960938,0,2,-1,-3,-2,-1,-2,0,1756998371774149179,-76.0
0,1.432816982,20250904110611781,None,231.06886291503906,4,2,-2,-3,-4,0,-1,0,1756998371781638145,-76.0
0,1.433067798,20250904110611782,None,231.06886291503906,0,-10,-1,-2,-3,0,-1,-1,1756998371781806707,-76.0
0,1.440288544,20250904110611789,None,231.3068389892578,-1,0,0,-2,-3,-1,-1,-1,1756998371789028167,-76.0
0,1.440499782,20250904110611789,None,231.3068389892578,-1,2,0,-1,-1,-1,3,0,1756998371789217710,-76.0
0,1.455281019,20250904110611804,None,231.78277587890625,1,4,1,1,1,-1,-1,0,1756998371803982019,-76.0
0,1.4554162019999999,20250904110611804,None,231.78277587890625,0,0,-3,-1,-1,-4,-10,-1,1756998371804110050,-76.0
0,1.46257925,20250904110611811,None,230.35494995117188,-2,-8,-2,1,1,4,7,-2,1756998371811410188,-76.0
0,1.462694883,20250904110611811,None,230.35494995117188,0,1,0,0,0,0,4,-2,1756998371811522722,-76.0
0,1.470459938,20250904110611819,None,230.35494995117188,-4,-2,-1,-3,-3,-1,-2,1,1756998371818982601,-77.0
0,1.4706389899999999,20250904110611819,None,230.35494995117188,0,1,0,-2,-2,-4,-3,-1,1756998371819090366,-77.0
0,1.4851746559999999,20250904110611834,None,230.35494995117188,1,-1,1,0,0,-2,-1,1,1756998371833978891,-76.0
0,1.485338926,20250904110611834,None,230.35494995117188,-2,1,-1,-1,-3,1,2,0,1756998371834099054,-76.0
0,1.492558241,20250904110611841,None,231.78277587890625,-4,-2,0,1,1,1,-1,0,1756998371841425180,-77.0
0,1.492618322,20250904110611841,None,231.78277587890625,-1,-4,-2,1,0,-3,1,-3,1756998371841537952,-77.0
0,1.5001394750000001,20250904110611849,None,230.83090209960938,-1,2,0,0,-2,-3,-4,-3,1756998371848985195,-76.0
0,1.5002722739999999,20250904110611849,None,230.83090209960938,-2,2,1,0,-3,-2,-2,0,1756998371849095821,-76.0
0,1.515149832,20250904110611864,None,231.3068389892578,-3,1,-4,-2,0,1,-1,-4,1756998371863964319,-76.0
0,1.5153019429999999,20250904110611864,None,231.3068389892578,0,2,0,-1,-2,-1,1,-1,1756998371864071130,-76.0
0,1.52258563,20250904110611871,None,231.3068389892578,0,0,-2,-4,-1,-3,-8,-1,1756998371871425390,-76.0
0,1.5226862429999999,20250904110611871,None,231.3068389892578,-5,-9,-3,-1,-2,4,6,0,1756998371871531486,-76.0
0,1.537391424,20250904110611886,None,231.78277587890625,-1,-3,1,-1,-1,-1,-1,-2,1756998371886263132,-76.0
0,1.537449598,20250904110611886,None,231.78277587890625,1,5,-2,-2,0,-1,-1,-2,1756998371886350393,-76.0
0,1.5451652999999999,20250904110611894,None,230.35494995117188,1,2,-1,0,0,-1,-2,0,1756998371893972158,-76.0
0,1.5452949999999999,20250904110611894,None,230.35494995117188,-1,-2,0,0,-3,1,-1,-1,1756998371894125223,-76.0
0,1.552690744,20250904110611901,None,231.78277587890625,-4,-2,-1,0,2,0,-4,-4,1756998371901560783,-77.0
0,1.552822351,20250904110611901,None,231.78277587890625,-1,2,2,-5,0,-2,-2,-1,1756998371901682138,-77.0
0,1.5603420730000002,20250904110611909,None,231.78277587890625,0,0,0,-3,1,0,-2,0,1756998371909082174,-77.0
0,1.560487747,20250904110611909,None,231.78277587890625,-2,-3,-1,-3,-2,-4,0,2,1756998371909223794,-77.0
0,1.575335264,20250904110611924,None,231.5447998046875,-2,-3,-2,-1,-2,-3,-1,-6,1756998371924131393,-77.0
0,1.575452566,20250904110611924,None,231.5447998046875,-2,0,1,1,0,2,1,0,1756998371924258470,-77.0
0,1.58294034,20250904110611931,None,230.35494995117188,-1,1,-1,-2,-5,0,-2,2,1756998371931521892,-76.0
0,1.5830421449999998,20250904110611932,None,230.35494995117188,-1,1,0,0,-3,-2,0,0,1756998371931680917,-76.0
0,1.5903930659999999,20250904110611939,None,231.06886291503906,-2,1,-1,0,0,-6,-9,-3,1756998371938955068,-77.0
0,1.590553522,20250904110611939,None,231.06886291503906,1,-4,-3,-1,-2,-1,6,2,1756998371939063310,-77.0
0,1.60540533,20250904110611954,None,230.83090209960938,0,-2,0,2,2,1,-1,2,1756998371954002857,-76.0
0,1.605533838,20250904110611954,None,230.83090209960938,3,3,0,1,-1,3,-3,2,1756998371954123258,-76.0
0,1.612691641,20250904110611961,None,230.59292602539062,1,-2,-1,-1,-4,-4,-4,0,1756998371961497545,-76.0
0,1.612798929,20250904110611961,None,230.59292602539062,-1,-7,-2,-2,-2,0,1,-1,1756998371961651086,-76.0
0,1.6203713419999999,20250904110611969,None,231.5447998046875,0,-1,2,-1,-2,0,2,0,1756998371969109296,-76.0
0,1.620518446,20250904110611969,None,231.5447998046875,-1,2,1,0,1,-4,1,0,1756998371969273328,-76.0
0,1.635242462,20250904110611984,None,230.83090209960938,0,-1,-1,-3,-1,-3,-1,-4,1756998371984007120,-76.0
0,1.635719061,20250904110611984,None,230.83090209960938,-1,2,-1,-3,0,0,1,-4,1756998371984142780,-77.0
0,1.6426916120000001,20250904110611991,None,232.020751953125,-3,-5,1,-2,-2,-1,0,-1,1756998371991472482,-77.0
0,1.642831564,20250904110611991,None,232.020751953125,-5,-10,-1,-3,-3,-1,1,3,1756998371991602182,-77.0
0,1.650192737,20250904110611999,None,230.59292602539062,-4,-5,-3,-2,-1,-1,1,-2,1756998371999013423,-76.0
0,1.650327444,20250904110611999,None,230.59292602539062,1,-4,-1,-2,0,-3,-7,0,1756998371999134063,-76.0
0,1.665190935,20250904110612014,None,230.59292602539062,0,-3,-4,-1,4,4,6,2,1756998372013996601,-76.0
0,1.665322542,20250904110612014,None,230.59292602539062,-2,5,-1,1,-2,-4,-4,-2,1756998372014123201,-76.0
0,1.672596216,20250904110612021,None,230.59292602539062,1,4,1,1,-1,-2,4,3,1756998372021463155,-77.0
0,1.672711134,20250904110612021,None,230.59292602539062,1,-6,-3,1,-1,2,0,1,1756998372021583557,-77.0
0,1.680127144,20250904110612029,None,231.3068389892578,-2,-5,-1,3,-3,1,-2,1,1756998372028974771,-77.0
0,1.6802258490000002,20250904110612029,None,231.3068389892578,0,-1,-3,0,0,0,-2,-1,1756998372029077291,-77.0
0,1.6953325270000001,20250904110612044,None,230.83090209960938,-4,2,-1,-1,-2,0,-1,-2,1756998372044068336,-76.0
0,1.6956522459999999,20250904110612044,None,230.83090209960938,3,3,0,-1,0,-4,-2,1,1756998372044258356,-76.0
0,1.7025363439999999,20250904110612051,None,231.3068389892578,2,0,2,-1,-2,-2,-3,-2,1756998372051406145,-76.0
0,1.702620268,20250904110612051,None,231.3068389892578,-4,-6,-2,-3,-5,0,-1,-1,1756998372051512241,-76.0
0,1.710167408,20250904110612059,None,231.3068389892578,0,0,-1,-3,-4,-1,-1,-2,1756998372059017658,-76.0
0,1.710261822,20250904110612059,None,231.3068389892578,5,-1,-3,-2,-2,-4,-4,1,1756998372059133529,-76.0
0,1.725179434,20250904110612074,None,231.5447998046875,-2,2,-5,-3,1,-3,-8,-4,1756998372073905706,-77.0
0,1.725364685,20250904110612074,None,231.5447998046875,-1,-8,-1,1,1,3,6,0,1756998372074028968,-77.0
0,1.732730388,20250904110612081,None,230.35494995117188,0,-1,-2,-2,0,-2,3,-2,1756998372081512212,-76.0
0,1.7328658099999998,20250904110612081,None,230.35494995117188,-2,0,-2,-2,-2,-1,-1,1,1756998372081674337,-76.0
0,1.740208864,20250904110612089,None,231.78277587890625,-2,1,-1,0,-2,-1,-2,-3,1756998372089029550,-77.0
0,1.740333557,20250904110612089,None,231.78277587890625,-4,-2,-3,1,1,0,-3,2,1756998372089150190,-77.0
0,1.7552325720000002,20250904110612104,None,230.59292602539062,1,2,-1,-1,0,-1,0,-1,1756998372104028463,-76.0
0,1.755376816,20250904110612104,None,230.59292602539062,0,-9,1,-4,1,0,3,1,1756998372104167222,-76.0
0,1.762697935,20250904110612111,None,231.3068389892578,1,0,-2,2,-1,-4,-1,1,1756998372111429452,-77.0
0,1.762845516,20250904110612111,None,231.3068389892578,-1,2,1,0,1,1,2,-1,1756998372111554622,-77.0
0,1.770127058,20250904110612119,None,230.83090209960938,-1,0,2,2,-4,-1,-2,-2,1756998372118975639,-76.0
0,1.770226717,20250904110612119,None,230.83090209960938,0,-2,-1,-1,-1,1,1,1,1756998372119100809,-76.0
0,1.785111189,20250904110612134,None,231.5447998046875,-3,0,-3,-3,-2,2,-2,-2,1756998372133892297,-76.0
0,1.785252094,20250904110612134,None,231.5447998046875,0,9,0,-2,-1,-5,1,0,1756998372134025096,-76.0
0,1.792687893,20250904110612141,None,231.5447998046875,-1,-4,0,-2,3,-1,-2,-1,1756998372141477584,-76.0
0,1.792874574,20250904110612141,None,231.5447998046875,2,-3,-4,-3,-1,-1,-1,0,1756998372141596078,-76.0
0,1.800193786,20250904110612149,None,230.83090209960938,-3,-4,0,0,-1,-1,-7,-3,1756998372148941278,-76.0
0,1.800370455,20250904110612149,None,230.83090209960938,1,-1,1,-3,-2,2,8,2,1756998372149081230,-76.0
0,1.8157181740000001,20250904110612164,None,230.35494995117188,0,3,-2,6,-2,0,-1,0,1756998372164442777,-76.0
0,1.81589961,20250904110612164,None,230.35494995117188,1,-6,0,1,0,-4,-3,-1,1756998372164597511,-76.0
0,1.8226478099999999,20250904110612171,None,231.78277587890625,-1,7,0,0,1,-2,-3,-1,1756998372171433210,-77.0
0,1.822785616,20250904110612171,None,231.78277587890625,-3,-7,-1,1,1,0,0,-4,1756998372171561479,-77.0
0,1.837856769,20250904110612186,None,230.59292602539062,0,-5,-2,-2,0,-1,-2,-5,1756998372186561584,-76.0
0,1.838007927,20250904110612187,None,230.59292602539062,-1,2,3,3,-1,-1,0,3,1756998372186790943,-76.0
0,1.845197677,20250904110612194,None,231.78277587890625,0,0,-1,-2,-2,0,-2,0,1756998372193939447,-77.0
0,1.845385074,20250904110612194,None,231.78277587890625,0,2,-1,-3,-3,0,1,-4,1756998372194096326,-77.0
0,1.852623224,20250904110612201,None,231.06886291503906,2,6,1,-1,1,-1,2,0,1756998372201413631,-76.0
0,1.852762937,20250904110612201,None,231.06886291503906,-3,1,0,-1,-1,2,-3,-2,1756998372201544761,-76.0
0,1.8678526880000001,20250904110612216,None,231.3068389892578,-1,-6,0,-2,-4,-5,-7,-3,1756998372216526985,-77.0
0,1.868157863,20250904110612217,None,230.35494995117188,1,-6,2,0,0,6,11,3,1756998372216903924,-77.0
0,1.875692844,20250904110612224,None,230.35494995117188,-2,-3,-1,2,0,0,0,-1,1756998372224420547,-76.0
0,1.8757960790000001,20250904110612224,None,230.35494995117188,-1,2,-1,-1,-1,1,-6,-1,1756998372224630355,-76.0
0,1.8836708070000001,20250904110612232,None,230.1169891357422,-1,-1,0,-1,-3,1,2,0,1756998372231817960,-77.0
0,1.883916616,20250904110612232,None,230.1169891357422,-1,5,2,-1,-4,-1,0,0,1756998372232042074,-77.0
0,1.898478508,20250904110612247,None,230.35494995117188,-3,-11,-5,-6,0,0,-2,-1,1756998372246768712,-76.0
0,1.898718595,20250904110612247,None,230.35494995117188,1,-3,-3,-5,-2,-3,-1,-4,1756998372246972084,-76.0
0,1.906028032,20250904110612255,None,232.020751953125,1,2,-2,-1,0,-3,-2,-3,1756998372254218816,-77.0
0,1.9062535760000001,20250904110612255,None,232.020751953125,-1,3,2,-1,1,-3,2,-3,1756998372254529953,-77.0
0,1.912889004,20250904110612261,None,232.020751953125,-2,-6,-2,2,-2,-2,-3,-3,1756998372261390447,-76.0
0,1.913052797,20250904110612262,None,232.020751953125,1,3,-2,-1,0,0,-1,-1,1756998372261502504,-76.0
0,1.927622318,20250904110612276,None,231.5447998046875,1,0,0,-1,1,1,-2,2,1756998372276373386,-77.0
0,1.927742004,20250904110612276,None,231.5447998046875,-1,0,2,0,0,-2,-5,-2,1756998372276484012,-77.0
0,1.935115099,20250904110612284,None,230.83090209960938,-3,-1,1,-2,1,3,10,1,1756998372283924341,-76.0
0,1.935317993,20250904110612284,None,230.83090209960938,-1,1,-1,-1,-2,-3,-1,-1,1756998372284028768,-76.0
0,1.9429214,20250904110612291,None,231.06886291503906,-2,0,-3,0,-3,-6,-3,-3,1756998372291406869,-77.0
0,1.9431669710000001,20250904110612292,None,231.06886291503906,0,0,1,-3,0,-1,1,-1,1756998372291522502,-77.0
0,1.957992077,20250904110612307,None,231.3068389892578,2,-5,-3,1,1,-1,-2,-2,1756998372306422233,-76.0
0,1.958308697,20250904110612307,None,230.59292602539062,1,12,1,-1,0,0,-1,1,1756998372306555986,-76.0
0,1.965401411,20250904110612314,None,230.59292602539062,-3,-14,0,0,-1,0,-1,-1,1756998372313925981,-76.0
0,1.965653896,20250904110612314,None,230.59292602539062,0,-9,-3,0,-1,-1,2,0,1756998372314053773,-76.0
0,1.972883463,20250904110612321,None,231.5447998046875,7,-2,0,0,3,0,0,-2,1756998372321441173,-77.0
0,1.973080635,20250904110612322,None,231.5447998046875,-3,22,-3,-3,-3,-1,-2,-3,1756998372321567773,-77.0
0,1.987995148,20250904110612337,None,231.78277587890625,-2,-19,-2,1,-1,-5,-2,-2,1756998372336462020,-77.0
0,1.988375187,20250904110612337,None,231.78277587890625,-1,-3,2,2,1,-4,-2,0,1756998372336593866,-77.0
0,1.99540925,20250904110612344,None,230.1169891357422,0,1,-4,-2,0,-1,-2,-1,1756998372343965768,-76.0
0,1.995584011,20250904110612344,None,230.1169891357422,-1,2,-3,-3,0,-3,-7,-6,1756998372344079732,-76.0
0,2.003031969,20250904110612352,None,230.1169891357422,-1,-2,-1,1,0,5,11,5,1756998372351423978,-76.0
0,2.003273964,20250904110612352,None,230.1169891357422,-1,-3,-3,-1,1,-1,-1,0,1756998372351546287,-76.0
0,2.018045902,20250904110612367,None,230.59292602539062,0,2,-1,1,0,-3,-1,-2,1756998372366420745,-76.0
0,2.018303394,20250904110612367,None,230.59292602539062,-2,-3,0,1,-2,-1,0,2,1756998372366557121,-76.0
0,2.025631666,20250904110612374,None,231.3068389892578,3,2,1,-1,0,-1,-1,-1,1756998372373939990,-77.0
0,2.025874853,20250904110612374,None,231.3068389892578,0,-2,-1,-3,3,-1,-1,0,1756998372374078273,-77.0
0,2.032893419,20250904110612381,None,231.06886291503906,1,0,1,0,-1,0,-1,-2,1756998372381405353,-76.0
0,2.033110142,20250904110612382,None,231.06886291503906,-2,2,-1,-1,-2,-2,-3,-4,1756998372381534099,-76.0
0,2.048312425,20250904110612397,None,230.83090209960938,2,3,0,0,-1,0,-1,2,1756998372396578550,-76.0
0,2.048583507,20250904110612397,None,230.83090209960938,0,-1,-1,-2,0,-1,-3,-1,1756998372396741390,-76.0
0,2.055729151,20250904110612404,None,231.5447998046875,-2,-8,0,-2,3,5,-4,0,1756998372404057264,-77.0
0,2.055944204,20250904110612404,None,231.5447998046875,-2,0,-5,-3,1,-2,-1,0,1756998372404212951,-77.0
0,2.06317544,20250904110612412,None,230.1169891357422,-1,21,0,2,1,-1,-3,1,1756998372411503553,-76.0
0,2.063541889,20250904110612412,None,230.1169891357422,-4,-10,-2,-7,1,-1,-6,0,1756998372411662578,-76.0
0,2.078179836,20250904110612427,None,232.020751953125,-3,-14,0,-1,0,1,4,-1,1756998372426490783,-76.0
0,2.078427315,20250904110612427,None,232.020751953125,-1,-6,3,-1,0,-1,0,-1,1756998372426667451,-76.0
0,2.085510492,20250904110612434,None,230.59292602539062,0,-1,-1,-3,-1,-1,-2,1,1756998372433885335,-76.0
0,2.085750818,20250904110612434,None,230.59292602539062,1,5,0,-2,-3,-3,-3,-3,1756998372434017419,-76.0
0,2.092988491,20250904110612442,None,232.020751953125,-2,0,-1,-2,-3,-2,-3,-1,1756998372441381216,-77.0
0,2.093265533,20250904110612442,None,232.020751953125,-3,2,-2,0,1,-1,-2,-1,1756998372441493511,-77.0
0,2.108116627,20250904110612457,None,231.5447998046875,0,-2,0,-5,0,0,4,1,1756998372456490516,-77.0
0,2.108359575,20250904110612457,None,231.5447998046875,-2,-4,0,2,0,-2,-5,-2,1756998372456622362,-77.0
0,2.115685701,20250904110612464,None,231.5447998046875,-2,-7,1,0,0,-1,-2,-2,1756998372464012622,-76.0
0,2.115927458,20250904110612464,None,231.5447998046875,1,1,-1,0,0,-3,-2,0,1756998372464133024,-76.0
0,2.123159885,20250904110612472,None,231.3068389892578,4,5,-3,1,1,-2,-2,-1,1756998372471500396,-76.0
0,2.123511553,20250904110612472,None,231.3068389892578,-2,2,2,-1,-3,-5,-8,-3,1756998372471632242,-76.0
0,2.13812828,20250904110612487,None,231.78277587890625,-5,-4,0,-1,-2,3,0,-1,1756998372486446619,-77.0
0,2.138370991,20250904110612487,None,231.78277587890625,-2,-1,0,0,-1,-2,6,-3,1756998372486589193,-77.0
0,2.1455783840000002,20250904110612494,None,230.59292602539062,-2,-3,0,0,2,1,-1,1,1756998372493910551,-76.0
0,2.145818472,20250904110612494,None,230.59292602539062,0,2,-1,0,2,0,0,0,1756998372494044780,-76.0
0,2.153152942,20250904110612502,None,232.020751953125,0,1,-3,-3,-1,-5,-3,-2,1756998372501416921,-77.0
0,2.153525591,20250904110612502,None,232.020751953125,1,-3,-2,-2,-1,-1,2,0,1756998372501593589,-77.0
0,2.168156147,20250904110612517,None,230.59292602539062,2,3,-1,0,-5,-1,2,4,1756998372516506910,-76.0
0,2.168567419,20250904110612517,None,230.59292602539062,-3,6,-2,-5,-2,0,-2,-2,1756998372516669988,-76.0
0,2.175658464,20250904110612524,None,231.78277587890625,-2,3,-3,-5,1,1,-1,-3,1756998372523994684,-77.0
0,2.175860405,20250904110612524,None,231.78277587890625,3,1,1,0,-2,0,0,0,1756998372524120092,-77.0
0,2.183120727,20250904110612532,None,230.59292602539062,0,-10,-2,2,0,-5,2,0,1756998372531470298,-76.0
0,2.183377743,20250904110612532,None,230.59292602539062,0,2,-1,0,-3,0,-3,-1,1756998372531602144,-76.0
0,2.198001385,20250904110612547,None,231.3068389892578,-3,1,1,-2,-2,2,-3,-1,1756998372546434164,-77.0
0,2.198177576,20250904110612547,None,231.3068389892578,-5,-8,-1,-2,-1,-2,-2,-3,1756998372546590089,-77.0
0,2.205572843,20250904110612554,None,231.06886291503906,0,6,-1,2,-3,-2,-6,-4,1756998372553863525,-76.0
0,2.205773353,20250904110612554,None,231.06886291503906,0,2,-1,2,-1,4,10,3,1756998372554063320,-76.0
0,2.212938547,20250904110612561,None,230.83090209960938,1,-6,0,-1,-2,1,-4,0,1756998372561396121,-77.0
0,2.213114261,20250904110612562,None,230.83090209960938,-6,0,0,1,-1,2,-2,-2,1756998372561518669,-77.0
0,2.228192806,20250904110612577,None,230.1169891357422,-2,-2,-1,-5,-1,1,-4,-4,1756998372576529264,-76.0
0,2.228500128,20250904110612577,None,230.1169891357422,2,1,0,-1,-1,-2,-4,1,1756998372576664209,-76.0
0,2.235570907,20250904110612584,None,230.1169891357422,2,1,1,-1,-1,-1,-3,-2,1756998372583973646,-77.0
0,2.235800981,20250904110612584,None,230.1169891357422,-1,4,-1,-1,-2,0,2,-3,1756998372584088563,-77.0
0,2.243092298,20250904110612592,None,231.3068389892578,-2,-9,-5,-4,-3,-1,1,0,1756998372591459274,-77.0
0,2.243459701,20250904110612592,None,231.3068389892578,1,1,-1,-2,-3,2,-2,-2,1756998372591581583,-77.0
0,2.258080005,20250904110612607,None,231.5447998046875,1,-1,-1,0,0,-2,-1,0,1756998372606428623,-77.0
0,2.258324385,20250904110612607,None,231.5447998046875,-1,-2,-2,-2,-2,-4,-2,-1,1756998372606558561,-77.0
0,2.265838384,20250904110612614,None,230.59292602539062,-1,-3,-1,0,-2,-1,0,0,1756998372613905668,-76.0
0,2.266041517,20250904110612615,None,230.59292602539062,-4,-2,2,0,-1,-2,0,-4,1756998372614202737,-76.0
0,2.273145675,20250904110612622,None,230.59292602539062,0,2,0,-3,-1,-2,1,-1,1756998372621695756,-77.0
0,2.273347378,20250904110612622,None,230.59292602539062,-2,-7,-3,-4,-1,-5,-8,-3,1756998372621912002,-77.0
0,2.287923574,20250904110612636,None,230.83090209960938,4,6,-1,-3,1,3,7,0,1756998372636606216,-76.0
0,2.288092851,20250904110612637,None,230.83090209960938,-2,-1,0,-5,-1,-1,5,0,1756998372636769294,-76.0
0,2.295571327,20250904110612644,None,231.06886291503906,-1,-11,-2,1,0,0,1,0,1756998372644192218,-77.0
0,2.295872927,20250904110612644,None,231.06886291503906,-3,-2,2,-2,1,-2,-5,1,1756998372644379138,-77.0
0,2.310808182,20250904110612659,None,230.59292602539062,-3,7,-4,-2,-1,-4,0,-3,1756998372659285068,-76.0
0,2.31103754,20250904110612660,None,230.59292602539062,3,-9,-2,0,-2,0,0,-1,1756998372659599065,-76.0
0,2.31780982,20250904110612666,None,230.59292602539062,-1,-6,-1,-1,-3,-1,-3,-1,1756998372666467666,-77.0
0,2.318077802,20250904110612667,None,230.59292602539062,1,4,0,-1,-2,2,-2,0,1756998372666599512,-77.0
0,2.325598717,20250904110612674,None,231.78277587890625,-2,0,1,1,0,-4,-1,4,1756998372673906803,-77.0
0,2.325929642,20250904110612674,None,231.78277587890625,-1,8,-3,0,-1,1,1,-1,1756998372674027919,-76.0
0,2.332969189,20250904110612682,None,230.59292602539062,-5,-8,0,0,-5,1,0,-2,1756998372681418418,-76.0
0,2.333475113,20250904110612682,None,230.59292602539062,-4,-5,-2,1,-1,-1,-4,-1,1756998372681536197,-76.0
0,2.348085165,20250904110612697,None,232.020751953125,-1,5,-2,0,-2,1,0,-1,1756998372696449279,-76.0
0,2.3484802240000002,20250904110612697,None,230.35494995117188,3,-4,1,-2,-4,-5,-6,-4,1756998372696564435,-76.0
0,2.355675697,20250904110612704,None,230.35494995117188,-2,-5,-3,-1,0,4,2,-2,1756998372703992366,-77.0
0,2.355904341,20250904110612704,None,230.35494995117188,1,1,-3,-1,3,0,3,5,1756998372704102993,-77.0
0,2.362950802,20250904110612712,None,231.5447998046875,1,0,0,-1,-2,0,-2,3,1756998372711395502,-77.0
0,2.363170385,20250904110612712,None,231.5447998046875,-3,0,-3,-1,-2,1,-3,-3,1756998372711506128,-77.0
0,2.378069162,20250904110612727,None,231.3068389892578,1,-3,0,-1,-1,-1,-3,-3,1756998372726446151,-77.0
0,2.378320932,20250904110612727,None,231.3068389892578,-2,-2,-2,0,-3,-3,-1,-6,1756998372726872682,-77.0
0,2.385766983,20250904110612734,None,231.06886291503906,1,-4,-1,0,2,-2,0,-1,1756998372734223842,-76.0
0,2.38596797,20250904110612735,None,231.06886291503906,-3,5,2,-5,-2,-1,-2,0,1756998372734481334,-76.0
0,2.392968654,20250904110612742,None,230.59292602539062,2,-7,-1,-1,0,-1,-2,-3,1756998372741587162,-76.0
0,2.393174887,20250904110612742,None,230.59292602539062,-6,-1,0,0,-5,-2,0,-3,1756998372741769075,-76.0
0,2.416231394,20250904110612765,None,230.1169891357422,-1,-2,-2,-2,-2,1,2,-3,1756998372764597177,-76.0
0,2.416692495,20250904110612765,None,230.1169891357422,-1,5,-2,3,0,1,-1,-2,1756998372764723300,-76.0
0,2.416816473,20250904110612765,None,230.1169891357422,2,-7,-1,-1,-1,-2,-6,-2,1756998372765356302,-76.0
0,2.416898727,20250904110612765,None,230.1169891357422,-2,2,-1,0,0,0,0,1,1756998372765463113,-76.0
0,2.423034906,20250904110612772,None,231.5447998046875,-2,-11,3,2,0,1,5,0,1756998372771419048,-77.0
0,2.423357487,20250904110612772,None,231.5447998046875,-1,5,-3,-1,-3,-2,-1,1,1756998372771541357,-77.0
0,2.43813324,20250904110612787,None,230.59292602539062,1,2,-1,-1,-3,0,-3,0,1756998372786459445,-77.0
0,2.438399076,20250904110612787,None,230.59292602539062,-4,-5,-1,0,1,-2,-2,-1,1756998372786579608,-77.0
0,2.445641756,20250904110612794,None,231.5447998046875,-2,0,0,3,-2,-1,-3,-1,1756998372793992042,-77.0
0,2.44586277,20250904110612794,None,231.5447998046875,1,6,0,1,-1,0,0,0,1756998372794106721,-77.0
0,2.452900886,20250904110612801,None,230.83090209960938,-2,-9,-1,-4,-1,-1,-4,-1,1756998372801610946,-76.0
0,2.453060627,20250904110612802,None,230.83090209960938,-3,-7,0,-3,-1,-2,-2,-1,1756998372801808595,-76.0
0,2.467712879,20250904110612816,None,231.3068389892578,1,1,-1,0,2,0,-1,-2,1756998372816468477,-76.0
0,2.467909097,20250904110612816,None,231.3068389892578,0,2,2,-2,-2,0,-4,-1,1756998372816607236,-76.0
0,2.475173473,20250904110612824,None,231.3068389892578,1,0,0,1,-2,3,1,3,1756998372823991298,-76.0
0,2.475355387,20250904110612824,None,231.3068389892578,1,1,1,1,-1,0,0,2,1756998372824086189,-76.0
0,2.482643843,20250904110612831,None,230.83090209960938,-1,-3,-2,1,-3,-2,0,-2,1756998372831469535,-76.0
0,2.482780456,20250904110612831,None,230.83090209960938,0,-1,0,-1,2,-3,-8,1,1756998372831597089,-76.0
0,2.497622013,20250904110612846,None,230.35494995117188,-2,2,2,1,1,3,8,-1,1756998372846446275,-76.0
0,2.497741222,20250904110612846,None,230.35494995117188,-4,-8,-4,-3,0,-2,2,-2,1756998372846560716,-76.0
0,2.505247116,20250904110612854,None,231.78277587890625,0,6,-2,-4,0,0,2,0,1756998372854023933,-77.0
0,2.505365372,20250904110612854,None,231.78277587890625,-3,-6,-5,-1,-2,0,-5,-5,1756998372854180812,-77.0
0,2.512605667,20250904110612861,None,230.35494995117188,-1,-5,-2,2,-2,0,-2,-2,1756998372861428737,-76.0
0,2.5127239230000002,20250904110612861,None,230.35494995117188,2,4,-1,-2,-2,-3,-1,-3,1756998372861540079,-76.0
0,2.52773714,20250904110612876,None,231.5447998046875,-1,3,-1,1,0,0,0,-3,1756998372876451492,-77.0
0,2.527901411,20250904110612876,None,231.5447998046875,2,5,2,1,-1,1,-2,-1,1756998372876579761,-77.0
0,2.535115957,20250904110612884,None,230.59292602539062,0,-10,-2,-3,-1,-1,1,-1,1756998372883964061,-76.0
0,2.5352222920000003,20250904110612884,None,230.59292602539062,-4,-3,-2,-1,-3,-2,0,-2,1756998372884072542,-76.0
0,2.542668342,20250904110612891,None,231.3068389892578,0,3,-1,-4,-2,-3,-3,-1,1756998372891476631,-77.0
0,2.542824745,20250904110612891,None,231.3068389892578,-1,1,-1,-1,1,-2,-3,2,1756998372891668081,-77.0
0,2.557614326,20250904110612906,None,231.3068389892578,-1,2,0,0,-1,1,0,-2,1756998372906455278,-76.0
0,2.55772376,20250904110612906,None,231.3068389892578,0,-2,0,-2,-1,-5,-6,0,1756998372906584978,-76.0
0,2.5652232169999998,20250904110612914,None,231.06886291503906,-2,-2,-2,-1,1,-2,6,-1,1756998372914037704,-76.0
0,2.565424442,20250904110612914,None,231.06886291503906,1,-2,1,-3,-3,0,1,0,1756998372914198875,-76.0
0,2.572671652,20250904110612921,None,231.5447998046875,-3,-3,-1,-3,-1,0,-2,-4,1756998372921497821,-77.0
0,2.572782039,20250904110612921,None,231.5447998046875,-1,2,-1,0,0,-6,-4,-3,1756998372921662569,-77.0
0,2.588162899,20250904110612937,None,232.020751953125,-1,-3,0,1,0,-2,1,0,1756998372936906814,-77.0
0,2.588344812,20250904110612937,None,232.020751953125,1,1,1,-1,-1,0,1,2,1756998372937049388,-77.0
0,2.595254898,20250904110612944,None,232.020751953125,-3,0,0,0,-1,-1,-3,1,1756998372944038867,-77.0
0,2.595366239,20250904110612944,None,232.020751953125,-3,-8,-1,-1,-1,1,-1,-2,1756998372944192409,-77.0
0,2.602516651,20250904110612951,None,230.59292602539062,-1,-3,-1,-3,-1,0,-1,0,1756998372951370716,-76.0
0,2.602587223,20250904110612951,None,230.59292602539062,0,3,2,0,-3,1,-1,0,1756998372951492071,-76.0
0,2.617712736,20250904110612966,None,230.59292602539062,0,-1,-1,-1,0,1,-1,-1,1756998372966504812,-76.0
0,2.617817402,20250904110612966,None,230.59292602539062,-3,10,-4,0,0,-2,0,1,1756998372966659545,-76.0
0,2.625514507,20250904110612974,None,231.3068389892578,-6,-6,-1,-4,0,-2,-1,-3,1756998372974175691,-77.0
0,2.625707388,20250904110612974,None,231.3068389892578,-5,-11,-3,-2,-3,-3,-5,0,1756998372974373340,-77.0
0,2.648246765,20250904110612997,None,230.83090209960938,3,4,3,0,1,2,7,2,1756998372997029542,-77.0
0,2.648406029,20250904110612997,None,230.83090209960938,2,-3,3,1,0,0,2,0,1756998372997183799,-77.0
0,2.648966551,20250904110612998,None,230.83090209960938,-2,-8,-1,0,-2,-1,-4,-5,1756998372997838735,-77.0
0,2.6491980550000003,20250904110612998,None,230.83090209960938,3,4,-2,1,-3,-1,0,-2,1756998372997951984,-77.0
0,2.6550302500000003,20250904110613004,None,231.5447998046875,0,0,0,-3,-3,-5,-5,0,1756998373003867387,-77.0
0,2.6551404,20250904110613004,None,231.5447998046875,-1,-7,-5,-1,-3,0,-3,1,1756998373003983259,-77.0
0,2.662604809,20250904110613011,None,230.59292602539062,0,2,-1,0,1,1,0,0,1756998373011449813,-76.0
0,2.6626966,20250904110613011,None,230.59292602539062,-2,-6,1,-1,-3,-1,-2,1,1756998373011560201,-76.0
0,2.677716493,20250904110613026,None,231.5447998046875,-2,4,-2,1,2,-2,0,-2,1756998373026513814,-77.0
0,2.677810907,20250904110613026,None,231.5447998046875,2,4,2,-2,-1,0,-2,3,1756998373026676416,-77.0
0,2.685105562,20250904110613034,None,230.35494995117188,-2,-2,-3,-1,-1,0,1,0,1756998373033959865,-76.0
0,2.685176372,20250904110613034,None,230.35494995117188,-1,-12,-2,0,-1,0,-3,0,1756998373034064531,-76.0
0,2.692557573,20250904110613041,None,231.78277587890625,-1,-1,0,0,1,-1,-2,0,1756998373041413068,-77.0
0,2.692649126,20250904110613041,None,231.78277587890625,3,2,0,-1,2,-1,4,1,1756998373041533946,-77.0
0,2.707592249,20250904110613056,None,231.5447998046875,-2,-2,0,-1,-3,0,-1,-2,1756998373056386232,-77.0
0,2.707677603,20250904110613056,None,231.5447998046875,-2,-8,0,0,-2,-4,-8,-1,1756998373056515693,-77.0
0,2.715192079,20250904110613064,None,231.5447998046875,3,0,-1,-3,-3,6,10,2,1756998373063982248,-77.0
0,2.7153198720000002,20250904110613064,None,231.5447998046875,2,2,-4,-5,1,-2,-2,-1,1756998373064153671,-77.0
0,2.722645759,20250904110613071,None,230.83090209960938,-2,-3,0,2,-2,-5,-4,2,1756998373071486949,-76.0
0,2.722758293,20250904110613071,None,230.83090209960938,2,1,0,-1,0,-1,-1,-1,1756998373071635246,-76.0
0,2.737701654,20250904110613086,None,231.3068389892578,0,4,-2,0,1,-2,-1,-2,1756998373086508512,-77.0
0,2.737791776,20250904110613086,None,231.3068389892578,-4,-7,-5,-4,-1,0,-3,-3,1756998373086670875,-77.0
0,2.745161533,20250904110613094,None,230.59292602539062,2,9,-2,1,2,-2,-3,-1,1756998373093991756,-76.0
0,2.745269537,20250904110613094,None,230.59292602539062,-1,-4,1,-5,-2,2,0,-2,1756998373094104766,-76.0
0,2.752669573,20250904110613101,None,230.59292602539062,-2,-4,-3,1,-1,-1,2,-2,1756998373101485252,-77.0
0,2.752772331,20250904110613101,None,230.59292602539062,-3,-1,-1,2,1,-1,-5,-1,1756998373101623773,-77.0
0,2.767609834,20250904110613116,None,230.35494995117188,1,3,-1,0,-1,-2,-1,0,1756998373116416215,-76.0
0,2.767903328,20250904110613116,None,230.35494995117188,3,7,2,1,0,1,1,1,1756998373116544246,-77.0
0,2.775048017,20250904110613124,None,231.78277587890625,-1,-5,1,0,3,-4,-3,-2,1756998373123905181,-77.0
0,2.775131941,20250904110613124,None,231.78277587890625,-2,-13,-5,-3,2,0,0,-2,1756998373124015331,-77.0
0,2.790121317,20250904110613139,None,231.3068389892578,-1,7,-1,-1,-1,-6,-9,-5,1756998373138965606,-77.0
0,2.7902331350000003,20250904110613139,None,231.3068389892578,-1,2,-2,-2,-2,1,11,3,1756998373139091253,-77.0
0,2.797610521,20250904110613146,None,231.3068389892578,1,6,2,-1,1,0,1,-1,1756998373146446704,-76.0
0,2.797695875,20250904110613146,None,231.3068389892578,-5,-11,-2,-1,-4,-2,-2,-1,1756998373146565437,-76.0
0,2.805247783,20250904110613154,None,230.83090209960938,0,-3,-2,-1,1,-1,-1,2,1756998373154036998,-76.0
0,2.805339098,20250904110613154,None,230.83090209960938,1,-2,-4,-1,2,-1,0,-3,1756998373154190540,-76.0
0,2.8200640679999998,20250904110613169,None,231.06886291503906,-4,2,1,0,2,0,-2,0,1756998373168875455,-76.0
0,2.8201689720000003,20250904110613169,None,231.06886291503906,-1,-2,-1,-1,1,1,0,-2,1756998373169013977,-76.0
0,2.827574491,20250904110613176,None,230.35494995117188,-1,-4,0,2,-3,-2,-2,-1,1756998373176373004,-76.0
0,2.827690363,20250904110613176,None,230.35494995117188,-3,1,0,-3,-2,-1,1,-1,1756998373176502704,-76.0
0,2.8349759580000002,20250904110613184,None,231.5447998046875,-4,-4,0,-2,-3,-1,0,-1,1756998373183850526,-77.0
0,2.835057735,20250904110613184,None,231.5447998046875,2,1,-3,-1,0,0,-2,-3,1756998373183964490,-77.0
0,2.850156069,20250904110613199,None,229.64105224609375,0,1,-4,0,0,1,-2,-1,1756998373198992967,-76.0
0,2.850259542,20250904110613199,None,229.64105224609375,-1,3,1,1,-1,0,1,0,1756998373199130058,-76.0
0,2.857591867,20250904110613206,None,231.5447998046875,-1,-3,1,0,4,0,-2,-2,1756998373206440687,-77.0
0,2.857682228,20250904110613206,None,231.5447998046875,-3,-6,-1,0,-2,-5,-7,-1,1756998373206572532,-77.0
0,2.865061998,20250904110613214,None,230.35494995117188,0,1,-2,1,1,4,9,1,1756998373213908195,-76.0
0,2.865175247,20250904110613214,None,230.35494995117188,0,-6,0,-1,-1,-1,0,-2,1756998373214014768,-76.0
0,2.880509138,20250904110613229,None,231.78277587890625,1,2,-2,-1,0,-3,-4,0,1756998373229362249,-77.0
0,2.880596638,20250904110613229,None,231.78277587890625,2,6,0,0,-2,-1,-2,0,1756998373229477167,-77.0
0,2.887598038,20250904110613236,None,230.83090209960938,0,-5,-2,-1,0,-1,-3,-1,1756998373236430406,-76.0
0,2.887681961,20250904110613236,None,230.83090209960938,-2,1,2,0,-1,-4,0,0,1756998373236548423,-76.0
0,2.895091533,20250904110613244,None,231.06886291503906,-1,1,0,-2,-3,1,2,-3,1756998373243930578,-77.0
0,2.895174265,20250904110613244,None,231.06886291503906,-3,-5,0,-1,0,0,-3,-2,1756998373244051933,-77.0
0,2.918468714,20250904110613267,None,230.83090209960938,-1,0,-3,-1,0,-1,-1,3,1756998373267286539,-77.0
0,2.918555736,20250904110613267,None,230.83090209960938,1,1,1,-1,-2,-1,0,0,1756998373267468690,-77.0
0,2.919014454,20250904110613268,None,231.78277587890625,1,-5,0,0,1,-1,3,3,1756998373267881870,-77.0
0,2.919078827,20250904110613268,None,231.78277587890625,-3,2,-3,-3,-1,-2,-2,0,1756998373268016338,-77.0
0,2.925361156,20250904110613274,None,231.78277587890625,-3,-1,-1,-2,2,-4,-6,-4,1756998373274072408,-77.0
0,2.925421238,20250904110613274,None,231.78277587890625,0,-1,1,1,-2,2,-1,-1,1756998373274272203,-77.0
0,2.9403960700000003,20250904110613289,None,232.020751953125,2,0,3,-1,0,-1,3,1,1756998373289193153,-77.0
0,2.940484762,20250904110613289,None,232.020751953125,2,-1,0,1,-1,-2,-1,-3,1756998373289399147,-77.0
0,2.947843551,20250904110613296,None,230.59292602539062,-1,1,-2,-3,-1,0,-3,1,1756998373296636343,-76.0
0,2.947920561,20250904110613296,None,230.59292602539062,-5,-1,-4,-1,0,-2,0,0,1756998373296824693,-76.0
0,2.955376148,20250904110613304,None,230.59292602539062,-1,-2,0,-2,-3,-1,-3,-3,1756998373304131269,-77.0
0,2.955454349,20250904110613304,None,230.59292602539062,1,-5,-1,-1,-2,3,0,1,1756998373304357290,-77.0
0,2.9785907270000003,20250904110613327,None,231.06886291503906,0,1,1,-1,-2,-3,-3,0,1756998373327335119,-77.0
0,2.9787395,20250904110613327,None,231.06886291503906,-3,-5,-1,-4,-1,-2,-2,-3,1756998373327531814,-77.0
0,2.979013681,20250904110613328,None,231.06886291503906,-3,-4,-2,-2,-2,1,0,2,1756998373327904701,-77.0
0,2.97911787,20250904110613328,None,231.06886291503906,0,4,1,1,0,0,-5,0,1756998373328021764,-77.0
0,2.985136986,20250904110613334,None,230.83090209960938,-2,2,2,1,-4,-1,-1,0,1756998373333961009,-76.0
0,2.985246897,20250904110613334,None,230.83090209960938,-1,-6,-4,1,1,-1,1,-2,1756998373334123849,-76.0
0,3.000159025,20250904110613349,None,230.59292602539062,0,5,0,-2,1,-2,1,-1,1756998373348976373,-76.0
0,3.000291586,20250904110613349,None,230.59292602539062,2,0,-4,-2,0,-2,-6,-2,1756998373349110603,-76.0
0,3.007605314,20250904110613356,None,231.3068389892578,-3,0,-1,-1,-1,2,5,4,1756998373356448650,-77.0
0,3.007687568,20250904110613356,None,231.3068389892578,-1,4,-5,-1,0,0,-1,-2,1756998373356581926,-77.0
0,3.015122652,20250904110613364,None,230.35494995117188,-3,-10,-1,-3,-4,1,-1,2,1756998373363987207,-76.0
0,3.015208721,20250904110613364,None,230.35494995117188,-2,3,-2,1,-1,-2,2,1,1756998373364106178,-76.0
0,3.03013587,20250904110613379,None,230.35494995117188,1,1,-4,-1,-2,-3,-1,-2,1756998373378920555,-76.0
0,3.030261516,20250904110613379,None,230.35494995117188,2,0,-1,-1,2,-2,0,-1,1756998373379070758,-76.0
0,3.037587166,20250904110613386,None,230.35494995117188,0,4,3,0,1,1,2,-3,1756998373386425256,-76.0
0,3.037678957,20250904110613386,None,230.35494995117188,-3,-5,-1,-2,-2,-1,-1,-2,1756998373386549234,-76.0
0,3.045287132,20250904110613394,None,231.5447998046875,-2,-3,-3,2,-2,-1,-2,-1,1756998373393958806,-77.0
0,3.045461416,20250904110613394,None,231.5447998046875,0,-3,-1,-2,-1,-1,-1,1,1756998373394123315,-77.0
0,3.060358286,20250904110613409,None,231.5447998046875,-1,0,-4,-3,0,-3,2,1,1756998373409048080,-77.0
0,3.060520172,20250904110613409,None,231.5447998046875,-1,-1,0,1,-1,2,-1,-4,1756998373409242868,-77.0
0,3.067648649,20250904110613416,None,230.83090209960938,-2,1,0,-4,2,-1,2,2,1756998373416465759,-76.0
0,3.067755222,20250904110613416,None,230.83090209960938,-3,3,0,-3,1,-1,-1,-4,1756998373416602134,-76.0
0,3.075298071,20250904110613424,None,230.83090209960938,-5,-7,1,-3,-2,-6,-7,-2,1756998373424011230,-76.0
0,3.075440645,20250904110613424,None,230.83090209960938,2,4,-4,2,-1,4,10,-1,1756998373424141407,-76.0
0,3.09024167,20250904110613439,None,231.5447998046875,2,5,0,-1,0,-2,4,1,1756998373438956499,-77.0
0,3.09041214,20250904110613439,None,231.5447998046875,2,0,0,-3,0,1,-4,1,1756998373439112186,-77.0
0,3.097646475,20250904110613446,None,230.83090209960938,-2,-1,-1,-2,-1,-2,0,-5,1756998373446457862,-76.0
0,3.098016977,20250904110613447,None,230.83090209960938,-1,-1,-1,-1,0,0,-2,0,1756998373446807622,-76.0
0,3.105319738,20250904110613454,None,232.020751953125,-1,-8,-1,-1,-2,-3,-2,-1,1756998373454077720,-77.0
0,3.105416298,20250904110613454,None,232.020751953125,-2,0,-4,-5,-4,0,-2,1,1756998373454282760,-77.0
0,3.120464563,20250904110613469,None,230.1169891357422,1,-1,2,-1,1,0,-3,0,1756998373469207763,-76.0
0,3.120703459,20250904110613469,None,230.1169891357422,2,-4,-4,-2,1,-1,-2,-1,1756998373469426870,-77.0
0,3.127600193,20250904110613476,None,231.78277587890625,-4,-6,-3,-1,-1,0,0,1,1756998373476438522,-77.0
0,3.127693653,20250904110613476,None,231.78277587890625,-2,-9,-5,0,-2,-2,0,-2,1756998373476583480,-77.0
0,3.134987593,20250904110613484,None,230.83090209960938,0,4,-2,0,-2,3,-1,0,1756998373483871936,-76.0
0,3.135073662,20250904110613484,None,230.83090209960938,0,1,-2,-2,-4,-1,-1,-2,1756998373483992099,-76.0
0,3.150022507,20250904110613499,None,230.83090209960938,-1,-4,1,1,1,-1,4,1,1756998373498870372,-76.0
0,3.150108576,20250904110613499,None,230.83090209960938,-1,3,1,0,-4,0,-6,-2,1756998373498986244,-76.0
0,3.157650471,20250904110613506,None,230.83090209960938,-1,-1,-1,-1,0,1,-2,-1,1756998373506401777,-77.0
0,3.157805681,20250904110613506,None,230.83090209960938,1,0,0,1,0,-1,0,-1,1756998373506652593,-77.0
0,3.165122509,20250904110613514,None,231.06886291503906,0,-1,-1,0,0,2,1,1,1756998373513952255,-77.0
0,3.165198088,20250904110613514,None,231.06886291503906,0,-3,-1,0,0,-3,-3,-3,1756998373514100074,-77.0
0,3.18011117,20250904110613529,None,230.59292602539062,2,1,-2,-1,-2,0,-1,-1,1756998373528932809,-76.0
0,3.180208206,20250904110613529,None,230.59292602539062,-1,-2,1,-1,0,0,-3,-1,1756998373529048919,-76.0
0,3.187728882,20250904110613536,None,231.5447998046875,-2,-2,-4,-5,-3,-1,-7,1,1756998373536482095,-77.0
0,3.187868118,20250904110613536,None,231.5447998046875,3,0,-1,-2,1,-2,4,-2,1756998373536637067,-77.0
0,3.19514513,20250904110613544,None,231.5447998046875,0,0,1,0,0,-1,0,-2,1756998373543984889,-76.0
0,3.195250034,20250904110613544,None,231.5447998046875,-1,0,0,-3,-4,-1,0,0,1756998373544112920,-76.0
0,3.210145712,20250904110613559,None,231.78277587890625,-2,1,-1,1,2,-1,-1,-1,1756998373558931827,-77.0
0,3.21027708,20250904110613559,None,231.78277587890625,1,-7,-2,0,1,1,-2,1,1756998373559086561,-77.0
0,3.217638969,20250904110613566,None,230.35494995117188,3,-6,1,-1,-1,-1,-1,-1,1756998373566441059,-76.0
0,3.21775341,20250904110613566,None,230.35494995117188,-4,-3,0,-1,-3,2,-2,-1,1756998373566586017,-76.0
0,3.225110292,20250904110613574,None,231.3068389892578,-4,1,0,-3,0,-6,-7,-1,1756998373573948144,-77.0
0,3.225228309,20250904110613574,None,231.3068389892578,2,5,-3,-1,-1,4,8,2,1756998373574082374,-77.0
0,3.248395443,20250904110613597,None,231.3068389892578,3,6,2,0,2,1,-2,2,1756998373597181558,-77.0
0,3.248525142,20250904110613597,None,231.3068389892578,-1,-1,-4,-2,-2,-1,-1,-1,1756998373597342491,-77.0
0,3.248977899,20250904110613598,None,231.3068389892578,-4,-1,-3,-2,0,0,-4,0,1756998373597825288,-77.0
0,3.249067545,20250904110613598,None,231.3068389892578,0,-2,1,1,-1,0,0,0,1756998373597941160,-77.0
0,3.255027771,20250904110613604,None,231.06886291503906,-2,-7,-3,-4,-3,-1,-2,-1,1756998373603885650,-76.0
0,3.255108833,20250904110613604,None,231.06886291503906,-1,4,0,0,-3,-3,-3,0,1756998373603996276,-76.0
0,3.270340919,20250904110613619,None,231.78277587890625,1,3,0,-3,-2,-1,-1,0,1756998373619044303,-77.0
0,3.270603418,20250904110613619,None,231.78277587890625,-1,-4,-2,1,1,1,0,-1,1756998373619186401,-77.0
0,3.277775526,20250904110613626,None,230.59292602539062,-1,-3,0,-1,-4,1,0,2,1756998373626494169,-76.0
0,3.277945757,20250904110613626,None,230.59292602539062,-1,0,-2,-1,-1,-2,-3,-5,1756998373626648426,-76.0
0,3.285173893,20250904110613634,None,230.59292602539062,1,1,1,-1,-2,-4,2,-1,1756998373633986711,-76.0
0,3.285260916,20250904110613634,None,230.59292602539062,1,0,-1,-2,-1,-1,-5,-2,1756998373634140729,-76.0
0,3.300141811,20250904110613649,None,230.59292602539062,-1,8,-1,-4,-1,-3,-11,-3,1756998373648917913,-76.0
0,3.300246954,20250904110613649,None,230.59292602539062,-2,-7,1,-2,-1,8,16,5,1756998373649056673,-76.0
0,3.307634353,20250904110613656,None,231.5447998046875,0,5,3,0,-4,0,2,2,1756998373656477212,-77.0
0,3.307722568,20250904110613656,None,231.5447998046875,-5,-6,-6,-1,0,1,-5,-3,1756998373656625270,-77.0
0,3.314992189,20250904110613664,None,230.59292602539062,-2,-1,0,-1,-2,0,0,-1,1756998373663845300,-76.0
0,3.315072775,20250904110613664,None,230.59292602539062,-4,0,3,0,1,-1,-1,-1,1756998373663948297,-76.0
0,3.33030653,20250904110613679,None,231.06886291503906,2,5,0,-1,-1,-2,-3,-1,1756998373679062128,-77.0
0,3.330403328,20250904110613679,None,231.06886291503906,-3,-14,1,1,2,-1,-2,-1,1756998373679214477,-77.0
0,3.337740183,20250904110613686,None,231.3068389892578,-3,1,-4,1,-4,-1,-3,0,1756998373686490774,-76.0
0,3.337922573,20250904110613686,None,231.3068389892578,0,3,-1,-1,0,-3,4,3,1756998373686660289,-76.0
0,3.345234155,20250904110613694,None,230.83090209960938,0,1,-1,0,-1,0,0,0,1756998373694031953,-76.0
0,3.345336199,20250904110613694,None,230.83090209960938,-4,-1,0,2,-1,-1,1,0,1756998373694176673,-76.0
0,3.36062026,20250904110613709,None,232.020751953125,-1,-1,-1,1,-3,-1,-1,0,1756998373709430217,-76.0
0,3.360732078,20250904110613709,None,232.020751953125,0,-1,1,3,1,0,-4,-2,1756998373709577560,-76.0
0,3.367572069,20250904110613716,None,230.35494995117188,-1,-1,-2,3,-2,-4,-10,-2,1756998373716412782,-76.0
0,3.367670297,20250904110613716,None,230.35494995117188,2,0,-1,0,-1,6,11,3,1756998373716529846,-76.0
0,3.375262737,20250904110613724,None,232.020751953125,0,-9,-3,0,0,2,3,-2,1756998373723893165,-77.0
0,3.37540245,20250904110613724,None,232.020751953125,-3,4,-3,-3,1,0,0,-1,1756998373724120140,-77.0
0,3.390324116,20250904110613739,None,231.5447998046875,0,-7,0,-2,0,-1,-3,-3,1756998373738982677,-77.0
0,3.390503645,20250904110613739,None,231.5447998046875,0,1,-2,-1,1,-3,-2,-3,1756998373739152193,-77.0
0,3.397720337,20250904110613746,None,231.5447998046875,-1,0,1,-2,-1,1,-2,-1,1756998373746507406,-76.0
0,3.397868156,20250904110613746,None,231.5447998046875,4,5,1,1,-1,0,3,3,1756998373746663093,-76.0
0,3.405344724,20250904110613754,None,230.59292602539062,-2,-2,1,0,-2,0,0,0,1756998373754002332,-76.0
0,3.405478716,20250904110613754,None,230.59292602539062,0,0,-2,-1,-3,1,-1,-1,1756998373754146575,-76.0
0,3.420277119,20250904110613769,None,231.3068389892578,-3,-7,1,-3,-2,0,-1,-5,1756998373768974304,-76.0
0,3.420365095,20250904110613769,None,231.3068389892578,0,-3,-3,2,0,2,-1,-1,1756998373769173622,-76.0
0,3.427708149,20250904110613776,None,230.83090209960938,-1,0,-3,-2,-1,0,-4,-3,1756998373776481628,-76.0
0,3.4277992250000002,20250904110613776,None,230.83090209960938,-2,-1,-1,1,-1,0,-1,0,1756998373776641368,-76.0
0,3.435153961,20250904110613784,None,231.78277587890625,-1,6,-1,1,-2,-5,-7,-5,1756998373783940315,-77.0
0,3.435268402,20250904110613784,None,231.78277587890625,-2,-12,-4,1,1,1,3,-1,1756998373784078359,-77.0
0,3.450463056,20250904110613799,None,230.35494995117188,0,1,1,-2,-2,-1,5,-1,1756998373799215316,-76.0
0,3.450551987,20250904110613799,None,230.35494995117188,2,-5,-2,-4,1,0,-2,1,1756998373799441814,-76.0
0,3.457912445,20250904110613806,None,232.020751953125,-1,-3,0,-1,-3,-2,-5,-1,1756998373806681632,-77.0
0,3.458006143,20250904110613807,None,232.020751953125,0,1,0,-1,0,-1,-2,-2,1756998373806873083,-77.0
0,3.465779781,20250904110613814,None,230.59292602539062,1,2,1,0,1,0,1,-1,1756998373814291477,-76.0
0,3.465974808,20250904110613815,None,230.59292602539062,3,-3,-2,2,1,-1,-3,0,1756998373814465999,-76.0
0,3.48051095,20250904110613829,None,231.78277587890625,-1,7,1,-4,-4,0,-2,-2,1756998373829099893,-77.0
0,3.480800628,20250904110613829,None,231.78277587890625,-4,-12,0,0,0,0,1,-1,1756998373829279184,-76.0
0,3.487939119,20250904110613836,None,230.83090209960938,-1,-9,-2,0,1,1,-2,-2,1756998373836527585,-76.0
0,3.488250017,20250904110613837,None,230.83090209960938,-1,6,-2,-3,-3,-1,-1,-3,1756998373836718320,-76.0
0,3.495303392,20250904110613844,None,231.5447998046875,-1,-6,-2,0,-1,-2,-1,2,1756998373843926429,-77.0
0,3.495531082,20250904110613844,None,231.5447998046875,-4,0,-2,-1,-2,-1,0,1,1756998373844060182,-77.0
0,3.510407924,20250904110613859,None,231.06886291503906,-2,4,0,-1,-2,-3,-2,0,1756998373859027147,-76.0
0,3.5106303690000003,20250904110613859,None,231.06886291503906,-1,3,-2,-1,-3,-4,-9,-4,1756998373859166860,-76.0
0,3.533521652,20250904110613882,None,230.35494995117188,-1,-1,1,-2,-4,3,10,4,1756998373882069110,-76.0
0,3.533972263,20250904110613883,None,230.35494995117188,-3,-1,-1,0,-1,-1,-1,2,1756998373882267475,-77.0
0,3.534440517,20250904110613883,None,230.35494995117188,-1,-5,-1,3,1,-4,-2,-3,1756998373882984399,-77.0
0,3.534650326,20250904110613883,None,230.35494995117188,-2,1,-2,-3,-1,0,-4,-1,1756998373883169889,-77.0
0,3.540262699,20250904110613889,None,231.78277587890625,1,11,-1,-1,-1,2,-2,-2,1756998373888948202,-77.0
0,3.540435791,20250904110613889,None,231.78277587890625,-3,-3,0,-2,-2,-1,0,-1,1756998373889063596,-77.0
0,3.547766685,20250904110613896,None,230.35494995117188,-2,-13,-3,1,-3,-1,0,1,1756998373896407365,-76.0
0,3.547985792,20250904110613897,None,230.35494995117188,-2,0,0,-2,2,-2,1,-4,1756998373896534204,-76.0
0,3.5554518699999997,20250904110613904,None,230.35494995117188,-1,7,0,-1,0,-1,-3,0,1756998373904038190,-77.0
0,3.555700302,20250904110613904,None,231.78277587890625,0,-17,2,-1,0,-1,-2,2,1756998373904191732,-77.0
0,3.57030034,20250904110613919,None,230.59292602539062,1,0,1,2,0,-3,-3,2,1756998373918904781,-76.0
0,3.57049942,20250904110613919,None,230.59292602539062,0,4,-3,-1,-1,1,-3,0,1756998373919047355,-76.0
0,3.5860085489999998,20250904110613935,None,231.06886291503906,-1,-2,1,2,0,-1,-5,-7,1756998373934610366,-76.0
0,3.5862567419999998,20250904110613935,None,231.06886291503906,-2,1,-2,0,-1,0,2,-1,1756998373934759616,-76.0
0,3.586652279,20250904110613935,None,231.06886291503906,0,3,0,1,-2,-4,-7,-3,1756998373935362339,-76.0
0,3.586863279,20250904110613935,None,231.06886291503906,-1,-5,-1,-1,1,3,9,0,1756998373935505628,-76.0
0,3.600409269,20250904110613949,None,231.06886291503906,3,4,-1,-1,1,-1,1,1,1756998373948930740,-77.0
0,3.600636482,20250904110613949,None,231.06886291503906,3,-1,-2,-1,0,-5,-6,-2,1756998373949070692,-77.0
0,3.607724905,20250904110613956,None,231.5447998046875,0,0,-2,-2,0,-3,-2,-2,1756998373956390619,-76.0
0,3.607909441,20250904110613956,None,231.5447998046875,-1,-7,-1,1,0,-1,-1,2,1756998373956501007,-76.0
0,3.615396261,20250904110613964,None,230.35494995117188,-3,-3,-6,-3,-4,-3,1,-1,1756998373963896989,-76.0
0,3.61574316,20250904110613964,None,230.35494995117188,1,-3,0,0,1,-2,-4,0,1756998373964010715,-76.0
0,3.630397558,20250904110613979,None,230.35494995117188,-2,-2,1,1,-1,0,0,2,1756998373978905439,-76.0
0,3.6305742260000002,20250904110613979,None,230.35494995117188,-2,4,-1,1,-2,0,-2,4,1756998373979041099,-76.0
0,3.6377625460000003,20250904110613986,None,231.78277587890625,-1,4,1,2,-1,0,-1,1,1756998373986380815,-77.0
0,3.637970209,20250904110613987,None,231.78277587890625,-2,-6,-1,-1,-3,-1,-3,-4,1756998373986508131,-77.0
0,3.64535141,20250904110613994,None,231.78277587890625,-3,7,-1,-2,-1,-1,-1,0,1756998373993983745,-76.0
0,3.64554882,20250904110613994,None,231.78277587890625,-5,-14,-2,-2,0,-3,-8,-2,1756998373994107246,-76.0
0,3.660259962,20250904110614009,None,231.3068389892578,1,-1,1,-1,0,7,11,4,1756998374008887767,-77.0
0,3.660458565,20250904110614009,None,231.3068389892578,0,4,1,0,0,2,1,-1,1756998374009011268,-77.0
0,3.667695522,20250904110614016,None,230.83090209960938,-1,2,-2,-1,-2,-1,2,-2,1756998374016383171,-76.0
0,3.667872906,20250904110614016,None,230.83090209960938,-2,16,0,-2,-2,-3,-2,0,1756998374016505002,-76.0
0,3.675525665,20250904110614024,None,231.06886291503906,-4,-10,-1,-3,-1,-2,-1,-3,1756998374023981094,-77.0
0,3.675734043,20250904110614024,None,231.06886291503906,-2,-10,0,-1,-3,-2,-4,-1,1756998374024140357,-77.0
0,3.69012618,20250904110614039,None,231.5447998046875,2,3,-2,0,-3,-2,-5,-4,1756998374038821458,-76.0
0,3.690277338,20250904110614039,None,231.5447998046875,1,2,1,-1,-4,-2,-1,0,1756998374038950204,-76.0
0,3.697975397,20250904110614047,None,230.59292602539062,-3,-2,-4,-4,0,-1,-2,-1,1756998374046538352,-76.0
0,3.698181152,20250904110614047,None,230.59292602539062,-4,2,-1,1,-1,2,0,0,1756998374046736478,-76.0
0,3.705421686,20250904110614054,None,231.5447998046875,0,2,3,1,0,-1,-1,-3,1756998374054012060,-77.0
0,3.705642462,20250904110614054,None,231.5447998046875,1,1,-5,1,-1,-1,0,1,1756998374054142236,-77.0
0,3.720336675,20250904110614069,None,230.1169891357422,2,-7,-2,-2,-1,-6,-2,-3,1756998374068906307,-77.0
0,3.7205634119999997,20250904110614069,None,230.1169891357422,-3,0,-1,-4,-5,-3,-6,-5,1756998374069027185,-77.0
0,3.72794199,20250904110614077,None,231.78277587890625,0,3,-3,1,0,3,0,2,1756998374076362133,-77.0
0,3.728143453,20250904110614077,None,231.78277587890625,0,2,-1,1,2,3,2,-1,1756998374076463699,-77.0
0,3.74290061,20250904110614091,None,231.5447998046875,-5,-13,-1,-1,-3,-1,1,-1,1756998374091393947,-77.0
0,3.743133783,20250904110614092,None,231.5447998046875,-1,-5,-3,-2,-3,-3,-2,-1,1756998374091521024,-77.0
0,3.750461578,20250904110614099,None,230.59292602539062,0,3,0,-2,-1,0,-2,-1,1756998374098863840,-76.0
0,3.750666857,20250904110614099,None,230.59292602539062,-2,2,1,0,-1,1,-2,-3,1756998374098991155,-76.0
0,3.757998228,20250904110614107,None,230.59292602539062,1,0,-4,0,-1,-1,1,-1,1756998374106353998,-77.0
0,3.758245468,20250904110614107,None,230.59292602539062,1,0,-3,-3,-1,-5,-2,-2,1756998374106475114,-77.0
0,3.7730350489999998,20250904110614122,None,231.06886291503906,-2,-2,-1,3,-1,1,0,-2,1756998374121448516,-76.0
0,3.773257971,20250904110614122,None,231.06886291503906,-3,-5,-3,-4,-2,-3,-2,0,1756998374121582269,-76.0
0,3.780613184,20250904110614129,None,230.59292602539062,-4,-3,2,-1,-4,1,-1,0,1756998374128926515,-76.0
0,3.78083229,20250904110614129,None,230.59292602539062,1,4,0,-1,-2,3,2,0,1756998374129091024,-76.0
0,3.78765583,20250904110614136,None,231.5447998046875,4,10,2,-1,0,-4,-2,-1,1756998374136402130,-77.0
0,3.787794351,20250904110614136,None,231.5447998046875,-3,-5,-2,2,0,-3,-5,0,1756998374136537551,-77.0
0,3.802690029,20250904110614151,None,230.35494995117188,-2,-9,-3,-4,1,3,13,-2,1756998374151419162,-76.0
0,3.802906036,20250904110614151,None,230.35494995117188,0,6,0,-1,-3,-2,-2,-2,1756998374151572704,-76.0
0,3.810127258,20250904110614159,None,232.020751953125,-3,-8,-1,-1,-2,-2,-2,-1,1756998374158876419,-77.0
0,3.810304165,20250904110614159,None,232.020751953125,-3,-8,1,-1,-4,-3,0,-1,1756998374158992528,-77.0
0,3.817694902,20250904110614166,None,230.35494995117188,2,6,3,0,0,2,2,0,1756998374166471958,-76.0
0,3.817816734,20250904110614166,None,230.35494995117188,0,-3,0,-3,-3,-1,-5,1,1756998374166620969,-76.0
0,3.832874775,20250904110614181,None,230.59292602539062,-2,2,1,-1,0,0,-1,-1,1756998374181493997,-76.0
0,3.8331146240000002,20250904110614182,None,230.59292602539062,-2,-5,-3,-1,-3,-2,-2,-2,1756998374181655406,-76.0
0,3.840088367,20250904110614189,None,230.59292602539062,4,7,1,-1,0,-1,-1,2,1756998374188891172,-76.0
0,3.840262413,20250904110614189,None,230.59292602539062,0,-1,-1,1,-1,0,-3,-2,1756998374189010381,-76.0
0,3.848009586,20250904110614197,None,231.3068389892578,-2,-6,-2,-4,-1,-2,-1,1,1756998374196409702,-77.0
0,3.8482847209999997,20250904110614197,None,231.3068389892578,-1,-1,1,2,-1,-2,-1,-2,1756998374196537494,-77.0
0,3.8631105420000003,20250904110614212,None,230.83090209960938,-1,-2,-4,-1,0,-2,-1,0,1756998374211551666,-76.0
0,3.863420725,20250904110614212,None,230.83090209960938,2,-1,-1,1,-2,0,0,0,1756998374211693763,-76.0
0,3.870455503,20250904110614219,None,231.5447998046875,1,-1,-1,-2,-2,-5,-5,-1,1756998374218885898,-77.0
0,3.870680809,20250904110614219,None,231.5447998046875,1,0,-1,0,2,3,11,4,1756998374219009876,-77.0
0,3.877497673,20250904110614226,None,230.59292602539062,1,-7,1,-3,-2,-1,-3,-3,1756998374226354837,-76.0
0,3.877612114,20250904110614226,None,230.59292602539062,-5,-8,-1,1,-3,0,-1,-3,1756998374226461648,-76.0
0,3.892568111,20250904110614241,None,231.78277587890625,0,-1,-1,-1,-2,-1,-3,-1,1756998374241401672,-77.0
0,3.8926486970000003,20250904110614241,None,231.78277587890625,0,1,-3,-2,-1,-1,-1,0,1756998374241525173,-77.0
0,3.900072098,20250904110614249,None,230.35494995117188,1,6,0,0,0,-1,1,0,1756998374248907804,-76.0
0,3.900187969,20250904110614249,None,230.35494995117188,0,-9,-2,-4,0,3,0,-1,1756998374249047517,-76.0
0,3.907619715,20250904110614256,None,231.5447998046875,-5,-3,1,0,-2,1,-1,-3,1756998374256399393,-77.0
0,3.907788515,20250904110614256,None,231.5447998046875,-1,1,-3,-2,-1,-1,0,3,1756998374256562948,-77.0
0,3.92255497,20250904110614271,None,230.83090209960938,-4,1,1,-4,-2,0,-3,-1,1756998374271366119,-76.0
0,3.922649145,20250904110614271,None,230.83090209960938,1,-2,0,-1,0,-2,-2,3,1756998374271511077,-76.0
0,3.930046081,20250904110614279,None,231.3068389892578,-2,-4,1,-4,0,-4,0,-2,1756998374278876066,-77.0
0,3.930125236,20250904110614279,None,231.3068389892578,-1,0,2,0,-3,-4,-7,-4,1756998374278992414,-77.0
0,3.937856436,20250904110614286,None,231.06886291503906,0,0,-2,-2,0,3,6,2,1756998374286566257,-76.0
0,3.937988996,20250904110614287,None,231.06886291503906,-4,-3,0,0,-3,0,3,1,1756998374286735534,-76.0
0,3.952674627,20250904110614301,None,231.06886291503906,-2,-2,1,1,-3,1,-6,0,1756998374301466941,-77.0
0,3.952786445,20250904110614301,None,231.06886291503906,-2,-2,1,-1,2,-1,-2,0,1756998374301637411,-77.0
0,3.9600191110000003,20250904110614309,None,228.92713928222656,-5,-7,2,1,-4,0,-1,3,1756998374308880805,-77.0
0,3.960090875,20250904110614309,None,228.92713928222656,1,-2,-3,-1,1,-2,-1,-2,1756998374308995485,-77.0
0,3.9675970080000003,20250904110614316,None,229.16510009765625,0,1,-2,0,0,-1,0,-2,1756998374316449642,-76.0
0,3.967681885,20250904110614316,None,229.16510009765625,-7,-11,-3,-1,-1,0,-3,0,1756998374316579103,-76.0
0,3.982590437,20250904110614331,None,229.87901306152344,2,0,1,0,-2,-1,-1,3,1756998374331426858,-76.0
0,3.98267436,20250904110614331,None,229.87901306152344,0,6,-3,-3,-3,2,-4,-3,1756998374331562519,-76.0
0,3.990029573,20250904110614339,None,229.87901306152344,-1,2,-1,-1,-2,3,-1,-3,1756998374338891983,-77.0
0,3.990272522,20250904110614339,None,231.5447998046875,0,-7,-1,-1,-1,-3,2,0,1756998374339033842,-77.0
0,3.997609377,20250904110614346,None,231.5447998046875,2,-1,0,-2,-5,-1,-4,-2,1756998374346411705,-76.0
0,3.997720957,20250904110614346,None,231.5447998046875,2,6,1,-4,-1,1,-2,-2,1756998374346557378,-76.0
0,4.01290679,20250904110614361,None,231.3068389892578,-3,-11,-1,-2,-1,-3,-5,-1,1756998374361466169,-77.0
0,4.01303792,20250904110614362,None,231.3068389892578,-2,0,-3,-2,0,-2,-3,1,1756998374361600160,-77.0
0,4.020156622,20250904110614369,None,231.06886291503906,0,1,-2,-5,-5,0,5,1,1756998374368904352,-76.0
0,4.020254135,20250904110614369,None,231.06886291503906,5,1,1,0,0,0,-1,2,1756998374369028091,-76.0
0,4.027556181,20250904110614376,None,231.06886291503906,-3,-2,-2,-5,0,0,-2,-2,1756998374376400470,-76.0
0,4.02764678,20250904110614376,None,231.06886291503906,0,-4,0,-2,-2,-4,-2,0,1756998374376514911,-76.0
0,4.042556047,20250904110614391,None,231.3068389892578,-1,0,2,2,-1,-2,-3,-4,1756998374391377449,-76.0
0,4.042656183,20250904110614391,None,231.3068389892578,-1,2,-1,2,-5,0,-2,-1,1756998374391499519,-76.0
0,4.050020218,20250904110614399,None,230.35494995117188,2,-2,-1,0,1,-2,2,1,1756998374398857355,-76.0
0,4.050100803,20250904110614399,None,230.35494995117188,-1,1,1,0,-1,-2,-3,-2,1756998374398999452,-76.0
0,4.057612896,20250904110614406,None,232.020751953125,-1,-3,-1,-1,3,1,-1,0,1756998374406433343,-77.0
0,4.057703733,20250904110614406,None,232.020751953125,1,-5,-2,-2,-1,1,-1,2,1756998374406575918,-77.0
0,4.07267499,20250904110614421,None,231.78277587890625,1,-3,-1,-2,-3,0,-4,-4,1756998374421461820,-77.0
0,4.072777271,20250904110614421,None,231.78277587890625,2,4,1,-1,0,-2,-9,-3,1756998374421625375,-77.0
0,4.080032587,20250904110614429,None,230.35494995117188,5,11,-1,0,1,5,9,5,1756998374428866147,-76.0
0,4.080125093,20250904110614429,None,230.35494995117188,-3,-10,1,-2,0,-3,-2,-4,1756998374428988695,-76.0
0,4.087579489,20250904110614436,None,230.35494995117188,-3,-6,0,-3,-1,-3,-2,-2,1756998374436432838,-76.0
0,4.087654114,20250904110614436,None,230.35494995117188,-2,1,-3,1,0,-4,-4,0,1756998374436564207,-76.0
0,4.102599382,20250904110614451,None,230.83090209960938,-2,9,-2,1,2,-4,-3,-5,1756998374451417684,-76.0
0,4.102706671,20250904110614451,None,230.83090209960938,-3,-8,-1,2,0,1,1,0,1756998374451558351,-76.0
0,4.109986543,20250904110614459,None,231.06886291503906,-2,-3,-3,0,-1,-3,-3,-1,1756998374458838462,-77.0
0,4.110065698,20250904110614459,None,231.06886291503906,2,-1,-3,2,0,-1,-1,-1,1756998374458951473,-77.0
0,4.1176741119999996,20250904110614466,None,231.3068389892578,3,9,0,0,0,-3,2,1,1756998374466479539,-76.0
0,4.1177845,20250904110614466,None,231.3068389892578,0,-2,0,-4,-2,1,-1,-3,1756998374466652154,-76.0
0,4.132623195,20250904110614481,None,230.59292602539062,0,-8,-3,0,-3,1,0,-1,1756998374481459140,-76.0
0,4.13273406,20250904110614481,None,230.59292602539062,0,-3,0,2,-3,-4,-4,-1,1756998374481596469,-76.0
0,4.140093565,20250904110614489,None,231.78277587890625,1,1,0,1,0,-1,-2,-1,1756998374488906860,-77.0
0,4.140189647,20250904110614489,None,231.78277587890625,1,3,-1,-2,0,-4,-5,1,1756998374489032268,-77.0
0,4.147673368,20250904110614496,None,230.35494995117188,-6,-10,-2,-3,-1,2,1,-3,1756998374496401548,-76.0
0,4.147862911,20250904110614496,None,230.35494995117188,0,-5,1,-2,0,0,4,0,1756998374496522426,-76.0
0,4.163098574,20250904110614512,None,231.78277587890625,-1,-5,0,-1,0,-3,1,0,1756998374511418342,-76.0
0,4.163379192,20250904110614512,None,231.78277587890625,1,6,-1,-2,-1,-2,-2,-3,1756998374511568307,-76.0
0,4.170418978,20250904110614519,None,230.35494995117188,-3,-2,0,-1,-6,-3,-3,-3,1756998374518902540,-76.0
0,4.170618295,20250904110614519,None,230.35494995117188,-1,-2,0,1,1,0,-2,-1,1756998374519068479,-76.0
0,4.177755117,20250904110614526,None,231.5447998046875,1,-4,-2,-4,0,-1,0,0,1756998374526372194,-77.0
0,4.177929163,20250904110614526,None,231.5447998046875,2,-1,-2,-1,-1,2,1,-1,1756998374526498556,-77.0
0,4.201077938,20250904110614550,None,231.3068389892578,-2,-2,-3,-4,-3,-1,0,0,1756998374549589872,-76.0
0,4.201361418,20250904110614550,None,231.3068389892578,-1,6,0,0,3,3,0,0,1756998374549743652,-76.0
0,4.201673508,20250904110614550,None,231.3068389892578,-2,-3,-2,-1,0,2,0,-3,1756998374550323247,-76.0
0,4.201827764,20250904110614550,None,231.3068389892578,1,-4,1,-1,-1,1,2,0,1756998374550432682,-76.0
0,4.207757473,20250904110614556,None,231.3068389892578,-2,4,0,1,0,0,-3,-2,1756998374556367397,-76.0
0,4.207896948,20250904110614556,None,231.3068389892578,0,-7,-4,-3,-1,-1,-2,1,1756998374556475877,-76.0
0,4.223081827,20250904110614572,None,231.5447998046875,1,-4,1,1,0,-4,-10,-4,1756998374571464538,-77.0
0,4.223453998,20250904110614572,None,231.5447998046875,-1,1,-4,-3,1,3,6,-3,1756998374571596145,-77.0
0,4.23046422,20250904110614579,None,230.35494995117188,-1,5,1,-3,-2,-1,2,1,1756998374578852653,-76.0
0,4.230684995,20250904110614579,None,230.35494995117188,1,-8,0,0,-1,2,-2,-1,1756998374578960180,-76.0
0,4.238093614,20250904110614587,None,231.78277587890625,1,-4,-1,-4,-3,-1,-5,-1,1756998374586492776,-77.0
0,4.23831892,20250904110614587,None,231.78277587890625,1,1,0,-4,-3,-5,-3,-2,1756998374586618900,-77.0
0,4.252878666,20250904110614601,None,230.59292602539062,0,2,2,1,1,0,-2,-1,1756998374601410865,-76.0
0,4.253093719,20250904110614602,None,230.59292602539062,-4,1,-2,-1,-2,-4,0,-2,1756998374601548910,-76.0
0,4.2605021,20250904110614609,None,231.5447998046875,-3,-9,-2,0,-1,-1,-1,1,1756998374608885526,-77.0
0,4.26072669,20250904110614609,None,231.5447998046875,1,4,-2,1,0,-4,-2,2,1756998374609009504,-77.0
0,4.267685413,20250904110614616,None,230.83090209960938,1,1,-1,2,-1,0,-1,-1,1756998374616398334,-76.0
0,4.267874718,20250904110614616,None,230.83090209960938,-1,0,-3,-3,-1,1,0,-2,1756998374616557836,-76.0
0,4.283582926,20250904110614632,None,231.06886291503906,-1,-1,-1,0,-1,-1,-2,-1,1756998374631790876,-76.0
0,4.283836365,20250904110614632,None,231.06886291503906,-1,0,-1,-1,-1,-3,3,-1,1756998374632070302,-76.0
0,4.290506363,20250904110614639,None,231.3068389892578,0,-3,-3,0,-2,1,-2,0,1756998374638939857,-76.0
0,4.290743828,20250904110614639,None,231.3068389892578,-2,10,-6,-5,-5,-5,-10,-4,1756998374639091730,-76.0
0,4.297648668,20250904110614646,None,230.59292602539062,-2,-3,-1,2,2,1,4,3,1756998374646449327,-76.0
0,4.297771931,20250904110614646,None,230.59292602539062,0,-2,-4,-2,-1,3,4,0,1756998374646622896,-76.0
0,4.312748909,20250904110614661,None,230.35494995117188,-2,-1,1,2,0,-3,-3,-3,1756998374661461591,-76.0
0,4.31292057,20250904110614661,None,230.35494995117188,-1,-4,-2,-3,-2,-1,1,2,1756998374661622762,-76.0
0,4.320129394,20250904110614669,None,230.35494995117188,0,1,1,0,1,-3,-7,0,1756998374668871402,-76.0
0,4.320319414,20250904110614669,None,230.35494995117188,6,9,-1,-2,-1,-3,-3,0,1756998374669005632,-76.0
0,4.327528,20250904110614676,None,232.020751953125,-2,-7,0,-1,-1,-1,1,-2,1756998374676367044,-77.0
0,4.327618122,20250904110614676,None,232.020751953125,0,-3,0,-2,-1,0,1,1,1756998374676494836,-77.0
0,4.342660427,20250904110614691,None,231.5447998046875,-1,-6,1,-3,1,-2,-1,0,1756998374691458225,-77.0
0,4.342830419,20250904110614691,None,231.5447998046875,-4,-6,-2,1,-3,-1,-3,-3,1756998374691591262,-77.0
0,4.350076914,20250904110614699,None,230.83090209960938,2,7,2,-3,-2,0,2,0,1756998374698896884,-76.0
0,4.350169658,20250904110614699,None,230.83090209960938,1,-7,1,2,1,-1,0,1,1756998374699031114,-76.0
0,4.357750416,20250904110614706,None,230.83090209960938,-4,-8,0,1,-1,0,-5,-2,1756998374706452369,-77.0
0,4.358008385,20250904110614707,None,230.83090209960938,1,6,-4,-2,-5,-2,2,-1,1756998374706597089,-77.0
0,4.372919321,20250904110614721,None,230.83090209960938,1,2,1,-2,2,-7,-4,-2,1756998374721622705,-76.0
0,4.373096943,20250904110614722,None,230.83090209960938,0,0,-2,0,0,1,12,0,1756998374721792221,-76.0
0,4.380163431,20250904110614729,None,230.59292602539062,-2,0,0,-4,-2,2,1,-1,1756998374728948116,-76.0
0,4.380333423,20250904110614729,None,230.59292602539062,1,-5,0,2,0,0,-1,-2,1756998374729100942,-76.0
0,4.395371437,20250904110614744,None,230.1169891357422,0,-1,-3,-1,-3,-1,-4,0,1756998374744089603,-76.0
0,4.395568132,20250904110614744,None,230.1169891357422,-2,0,1,-1,-2,2,2,-1,1756998374744260549,-76.0
0,4.402502775,20250904110614751,None,230.1169891357422,-4,-3,-2,-1,-2,0,1,-1,1756998374751366615,-76.0
0,4.402649641,20250904110614751,None,230.1169891357422,0,2,1,-3,-2,-6,0,-1,1756998374751472949,-77.0
0,4.410122394,20250904110614759,None,231.78277587890625,-1,2,-2,1,-1,-1,-3,0,1756998374758894443,-76.0
0,4.410276651,20250904110614759,None,231.78277587890625,-5,-3,-4,-2,-4,1,-2,-1,1756998374759055614,-76.0
0,4.417452812,20250904110614766,None,230.1169891357422,0,-2,0,1,-2,1,2,1,1756998374766322612,-76.0
0,4.4175422189999995,20250904110614766,None,230.1169891357422,-1,7,-1,2,-1,-2,1,-2,1756998374766432762,-76.0
0,4.432496786,20250904110614781,None,230.59292602539062,-2,-3,-2,0,-1,-2,-4,0,1756998374781418323,-76.0
0,4.432548046,20250904110614781,None,230.59292602539062,-4,-10,0,0,0,-2,-3,-1,1756998374781507492,-76.0
0,4.439903498,20250904110614788,None,231.3068389892578,-1,3,-1,1,-3,1,-1,-2,1756998374788824081,-77.0
0,4.439976215,20250904110614789,None,231.3068389892578,-1,1,1,1,0,1,0,-1,1756998374788922786,-77.0
0,4.463469267,20250904110614812,None,230.83090209960938,0,2,0,-3,-2,-4,-8,-1,1756998374812108278,-76.0
0,4.463752031,20250904110614812,None,230.83090209960938,-5,-11,-2,-4,-2,6,12,0,1756998374812276840,-76.0
0,4.463974476,20250904110614813,None,230.83090209960938,1,1,-1,1,-1,-2,2,-3,1756998374812847137,-76.0
0,4.464071512,20250904110614813,None,230.83090209960938,-1,3,-1,-1,-2,2,-1,0,1756998374812960863,-76.0
0,4.470187425,20250904110614819,None,231.3068389892578,0,-5,-1,-3,0,-1,-1,0,1756998374818974018,-77.0
0,4.470300436,20250904110614819,None,231.3068389892578,-2,2,0,-1,-1,-2,1,0,1756998374819152593,-77.0
0,4.477606773,20250904110614826,None,230.59292602539062,-1,-2,-2,-1,0,0,-2,0,1756998374826430559,-76.0
0,4.477806091,20250904110614826,None,230.59292602539062,-1,-8,-2,-4,-1,0,2,2,1756998374826546907,-76.0
0,4.492851257,20250904110614841,None,231.78277587890625,-1,5,-3,-1,0,-1,0,-1,1756998374841457605,-77.0
0,4.493038177,20250904110614842,None,231.78277587890625,-1,2,-1,0,0,0,-3,2,1756998374841623067,-77.0
0,4.500019073,20250904110614849,None,230.1169891357422,-2,-4,1,1,-1,3,0,1,1756998374848810434,-76.0
0,4.500113964,20250904110614849,None,230.1169891357422,3,-2,0,-1,-1,-1,-3,-1,1756998374848968267,-76.0
0,4.515183449,20250904110614864,None,230.59292602539062,0,9,0,-5,-2,-4,-3,-2,1756998374863925933,-76.0
0,4.515335798,20250904110614864,None,230.59292602539062,1,-7,0,2,2,-1,-9,-1,1756998374864078521,-76.0
0,4.522657633,20250904110614871,None,230.59292602539062,-2,-2,0,2,-3,1,6,-2,1756998374871461629,-77.0
0,4.522845983,20250904110614871,None,231.78277587890625,-1,-6,-4,0,0,-7,1,-1,1756998374871601104,-77.0
0,4.530169487,20250904110614879,None,231.78277587890625,-2,4,0,1,4,1,0,1,1756998374878974914,-77.0
0,4.530299902,20250904110614879,None,231.78277587890625,0,2,2,0,-1,-1,-4,-1,1756998374879121780,-77.0
0,4.537565946,20250904110614886,None,231.06886291503906,-1,3,0,-1,-2,-4,-4,-1,1756998374886445283,-76.0
0,4.537648916,20250904110614886,None,231.06886291503906,-2,-3,-1,0,-1,3,3,-1,1756998374886561393,-76.0
0,4.552512646,20250904110614901,None,231.5447998046875,-1,-1,-1,-1,-3,1,1,-1,1756998374901347398,-76.0
0,4.552595377,20250904110614901,None,231.5447998046875,-4,-2,-3,1,2,0,0,-2,1756998374901467561,-76.0
0,4.559963941,20250904110614909,None,230.35494995117188,3,4,1,-1,2,-1,-3,-1,1756998374908790111,-76.0
0,4.560040235,20250904110614909,None,230.35494995117188,4,0,0,-4,-1,-2,2,0,1756998374908903121,-76.0
0,4.575154304,20250904110614924,None,231.5447998046875,-2,-4,0,-1,-2,0,2,-2,1756998374923885822,-77.0
0,4.575330972,20250904110614924,None,231.5447998046875,-1,3,2,0,-1,-1,-5,-4,1756998374924007654,-77.0
0,4.582543135,20250904110614931,None,230.1169891357422,0,-7,-1,-1,-1,2,10,1,1756998374931404829,-76.0
0,4.582647323,20250904110614931,None,230.1169891357422,-1,-2,-1,-1,-1,-1,-1,0,1756998374931524515,-76.0
0,4.590059757,20250904110614939,None,231.78277587890625,-1,2,0,0,0,-3,-3,-1,1756998374938899278,-77.0
0,4.590149641,20250904110614939,None,231.78277587890625,-2,4,-3,1,0,-4,-4,-3,1756998374939019441,-77.0
0,4.59760046,20250904110614946,None,230.59292602539062,-2,-6,0,-3,-3,-1,-1,-1,1756998374946419477,-76.0
0,4.597731829,20250904110614946,None,230.59292602539062,-1,-10,-2,-2,2,2,0,0,1756998374946546316,-76.0
0,4.612590313,20250904110614961,None,231.5447998046875,-1,8,-2,-2,1,1,0,-1,1756998374961379528,-77.0
0,4.6127233499999996,20250904110614961,None,231.5447998046875,-1,-11,-4,-1,-3,5,-2,0,1756998374961500883,-77.0
0,4.620084047,20250904110614969,None,230.59292602539062,-2,-2,-4,-1,-1,-1,-1,-2,1756998374968876600,-76.0
0,4.62022686,20250904110614969,None,230.59292602539062,3,5,-2,-1,0,0,2,-2,1756998374968994617,-76.0
0,4.635139227,20250904110614984,None,231.3068389892578,0,2,-2,-2,-1,0,-1,-2,1756998374983901023,-76.0
0,4.635318041,20250904110614984,None,231.3068389892578,-1,0,-1,-2,1,2,1,-1,1756998374984032869,-76.0
0,4.642595053,20250904110614991,None,231.3068389892578,-2,-1,-1,1,-1,-1,2,1,1756998374991437673,-76.0
0,4.642738819,20250904110614991,None,231.3068389892578,0,-2,-3,-3,-1,3,-2,-3,1756998374991564273,-76.0
0,4.650010586,20250904110614999,None,230.59292602539062,-1,-1,1,2,-1,-1,-4,-1,1756998374998854398,-76.0
0,4.650101662,20250904110614999,None,230.59292602539062,-1,0,-3,2,0,-1,-5,-3,1756998374998955249,-76.0
0,4.657623529,20250904110615006,None,231.5447998046875,-4,3,0,-5,-1,1,6,2,1756998375006447076,-77.0
0,4.657739639,20250904110615006,None,231.5447998046875,0,-7,-1,-1,-2,-2,-2,-1,1756998375006577491,-77.0
0,4.672662735,20250904110615021,None,231.78277587890625,-3,1,-1,-2,-2,1,-1,-2,1756998375021437883,-77.0
0,4.672793627,20250904110615021,None,231.78277587890625,0,-3,1,-4,-1,-3,0,-4,1756998375021597623,-77.0
0,4.680017471,20250904110615029,None,231.78277587890625,-1,2,-1,-1,-1,-3,-3,1,1756998375028857946,-76.0
0,4.680125475,20250904110615029,None,231.78277587890625,-2,1,-1,-1,0,-2,-4,-2,1756998375028975248,-76.0
0,4.6951215269999995,20250904110615044,None,231.78277587890625,-2,-11,-3,-6,-2,-3,-1,-4,1756998375043897390,-77.0
0,4.6952881810000004,20250904110615044,None,231.78277587890625,-1,2,1,-2,0,-1,0,0,1756998375044016361,-77.0
0,4.702708483,20250904110615051,None,230.83090209960938,0,3,1,-1,-1,-3,-3,1,1756998375051486968,-76.0
0,4.702827215,20250904110615051,None,230.83090209960938,1,1,0,-1,0,-2,-3,-1,1756998375051635980,-76.0
0,4.709960699,20250904110615059,None,231.06886291503906,0,-1,-2,-3,-5,-1,-2,1,1756998375058849096,-77.0
0,4.710049867,20250904110615059,None,231.06886291503906,1,-4,-3,-1,1,1,5,1,1756998375058959007,-77.0
0,4.725065708,20250904110615074,None,231.06886291503906,-2,-1,-3,-2,0,-3,0,-1,1756998375073869228,-76.0
0,4.725168943,20250904110615074,None,231.06886291503906,-1,-2,-1,-6,-4,1,0,-3,1756998375074030876,-76.0
0,4.733115434,20250904110615082,None,230.59292602539062,0,-1,-2,-3,-2,-5,-11,0,1756998375081877231,-76.0
0,4.733226538,20250904110615082,None,230.59292602539062,-2,3,0,-3,-1,3,11,1,1756998375082078456,-76.0
0,4.740097523,20250904110615089,None,231.78277587890625,-1,-2,-1,-1,0,-3,-2,-1,1756998375088868856,-77.0
0,4.740246773,20250904110615089,None,231.78277587890625,0,-2,-2,-2,-1,-3,2,-1,1756998375089017152,-77.0
0,4.755119324,20250904110615104,None,230.35494995117188,4,5,1,-1,0,-1,-1,0,1756998375103922367,-77.0
0,4.75523901,20250904110615104,None,230.35494995117188,-1,-7,-2,-3,-2,3,-2,0,1756998375104084730,-77.0
0,4.762643575,20250904110615111,None,231.78277587890625,-2,4,1,1,-1,-2,-5,-3,1756998375111469268,-77.0
0,4.762731552,20250904110615111,None,231.78277587890625,-2,-9,-1,0,-2,2,2,-3,1756998375111615657,-77.0
0,4.770061731,20250904110615119,None,230.35494995117188,0,-3,-1,-2,-2,0,1,2,1756998375118893623,-76.0
0,4.770177841,20250904110615119,None,230.35494995117188,1,11,-2,1,-1,0,-2,-4,1756998375119012117,-76.0
0,4.785099983,20250904110615134,None,230.59292602539062,-1,-2,0,1,-1,-3,-1,2,1756998375133891344,-76.0
0,4.785231352,20250904110615134,None,230.59292602539062,0,-8,-1,1,0,-1,0,2,1756998375134027242,-76.0
0,4.792379856,20250904110615141,None,231.06886291503906,0,0,-1,-1,1,-1,1,-1,1756998375141298532,-77.0
0,4.792444706,20250904110615141,None,231.06886291503906,2,2,1,-1,0,-1,-1,-2,1756998375141396999,-77.0
0,4.800005913,20250904110615149,None,231.06886291503906,0,-10,-2,0,-1,2,-2,0,1756998375148820400,-76.0
0,4.800095796,20250904110615149,None,231.06886291503906,0,0,-3,-3,-1,-6,-6,-3,1756998375148937225,-76.0
0,4.815047025,20250904110615164,None,230.83090209960938,1,1,-2,1,-4,2,6,-1,1756998375163868904,-76.0
0,4.815127373,20250904110615164,None,230.83090209960938,-2,1,0,0,2,5,0,-1,1756998375164006233,-76.0
0,4.822623253,20250904110615171,None,231.3068389892578,2,4,-1,0,-1,1,4,2,1756998375171447992,-77.0
0,4.822713375,20250904110615171,None,231.3068389892578,-2,0,-4,-4,-1,-2,-1,0,1756998375171591758,-77.0
0,4.830141306,20250904110615179,None,230.35494995117188,1,0,0,0,-1,1,-1,0,1756998375178942918,-76.0
0,4.83028245,20250904110615179,None,230.35494995117188,0,-9,-3,-1,-2,0,-3,0,1756998375179110765,-76.0
0,4.845240593,20250904110615194,None,231.78277587890625,3,0,-1,-2,1,-1,-3,-4,1756998375193926572,-76.0
0,4.845416546,20250904110615194,None,231.78277587890625,-1,2,-1,-5,-2,0,-1,-4,1756998375194091558,-76.0
0,4.852616787,20250904110615201,None,230.59292602539062,3,1,0,-4,-1,-1,-3,-3,1756998375201440334,-76.0
0,4.852719307,20250904110615201,None,230.59292602539062,-1,0,0,-3,0,-3,-2,-1,1756998375201578378,-76.0
0,4.859986782,20250904110615209,None,231.78277587890625,4,7,2,4,-2,4,-1,0,1756998375208854436,-77.0
0,4.860071659,20250904110615209,None,231.78277587890625,-4,-8,-2,0,1,-2,0,-1,1756998375208972692,-77.0
0,4.875104666,20250904110615224,None,231.3068389892578,-1,2,0,-2,-1,1,-4,0,1756998375223908424,-77.0
0,4.875234604,20250904110615224,None,231.3068389892578,-1,5,0,4,0,-2,-3,1,1756998375224070549,-77.0
0,4.882625103,20250904110615231,None,231.3068389892578,-3,-7,-3,-3,0,-1,2,1,1756998375231445074,-76.0
0,4.882831573,20250904110615231,None,231.06886291503906,0,-1,1,0,-1,-1,2,2,1756998375231646537,-76.0
0,4.890321731,20250904110615239,None,231.06886291503906,-1,1,0,-1,-2,-1,0,3,1756998375238986015,-76.0
0,4.8904817099999995,20250904110615239,None,231.06886291503906,0,-1,0,-1,-1,1,2,1,1756998375239156246,-76.0
0,4.9132950300000005,20250904110615262,None,230.1169891357422,-1,7,-2,-1,-3,2,-1,-1,1756998375262064456,-76.0
0,4.91342926,20250904110615262,None,230.1169891357422,-1,-6,-3,-2,-3,-3,-8,-2,1756998375262197732,-76.0
0,4.913904905,20250904110615262,None,230.1169891357422,2,4,-2,0,0,3,6,3,1756998375262784481,-76.0
0,4.913980007,20250904110615263,None,230.1169891357422,-1,-2,-3,0,-2,0,4,1,1756998375262892484,-76.0
0,4.920119524,20250904110615269,None,231.5447998046875,-1,-9,-2,-2,0,-3,-4,0,1756998375268910646,-77.0
0,4.920284986,20250904110615269,None,231.5447998046875,-2,-5,-4,-4,-2,-1,-1,-2,1756998375269056081,-77.0
0,4.935196876,20250904110615284,None,230.35494995117188,-2,1,-1,0,-2,-1,-1,0,1756998375283942937,-76.0
0,4.935377121,20250904110615284,None,230.35494995117188,-1,-2,-2,0,0,2,-7,-1,1756998375284128427,-76.0
0,4.942697525,20250904110615291,None,231.5447998046875,0,-1,-2,-1,-1,0,2,-4,1756998375291464090,-77.0
0,4.942849397,20250904110615291,None,231.5447998046875,3,11,2,-1,-2,3,-1,-1,1756998375291612625,-77.0
0,4.957726955,20250904110615306,None,231.5447998046875,-4,-8,-3,0,0,1,-1,-4,1756998375306486129,-77.0
0,4.957903385,20250904110615306,None,231.5447998046875,-1,-6,-1,2,-1,-2,-3,-2,1756998375306655645,-77.0
0,4.965019226,20250904110615314,None,231.5447998046875,0,6,-2,-3,0,-2,1,0,1756998375313887834,-77.0
0,4.965104818,20250904110615314,None,231.5447998046875,2,-3,-5,-1,-1,1,1,0,1756998375313994407,-77.0
0,4.972652912,20250904110615321,None,230.83090209960938,0,3,0,-2,0,1,-1,0,1756998375321442365,-76.0
0,4.972754955,20250904110615321,None,230.83090209960938,-1,1,-5,-1,-1,0,-2,0,1756998375321591854,-76.0
0,4.980068207,20250904110615329,None,231.06886291503906,-1,-3,0,-3,-1,-2,-4,-2,1756998375328931570,-76.0
0,4.980148077,20250904110615329,None,231.06886291503906,0,4,-1,1,1,0,-3,0,1756998375329060554,-76.0
0,4.995079756,20250904110615344,None,230.59292602539062,0,0,4,1,-3,0,5,0,1756998375343887329,-76.0
0,4.995170593,20250904110615344,None,230.59292602539062,0,-7,-1,-3,-4,-1,-3,-4,1756998375344022989,-76.0
0,5.002546787,20250904110615351,None,230.59292602539062,0,3,0,0,1,0,-4,-3,1756998375351411819,-77.0
0,5.002641916,20250904110615351,None,230.59292602539062,-3,-7,-2,0,0,2,-2,-4,1756998375351542949,-77.0
0,5.010043621,20250904110615359,None,231.78277587890625,1,-1,0,-1,-2,-3,-1,-2,1756998375358867406,-77.0
0,5.010116577,20250904110615359,None,231.78277587890625,-1,7,-1,-2,-1,-2,0,1,1756998375358936786,-77.0
0,5.025155544,20250904110615374,None,232.020751953125,-3,-3,-2,-4,0,3,1,-3,1756998375373963832,-77.0
0,5.025274277,20250904110615374,None,232.020751953125,-1,-10,-1,-1,-1,-2,0,1,1756998375374115943,-77.0
0,5.032616615,20250904110615381,None,230.35494995117188,3,2,0,-1,-3,0,-5,-3,1756998375381465911,-76.0
0,5.032720566,20250904110615381,None,230.35494995117188,-5,-2,1,-1,0,-3,2,1,1756998375381596088,-76.0
0,5.040040016,20250904110615389,None,230.35494995117188,-2,-4,1,1,1,-1,-1,-2,1756998375388898611,-77.0
0,5.040132761,20250904110615389,None,230.35494995117188,-1,-1,-1,-4,2,-3,-3,-3,1756998375389029026,-77.0
0,5.055043697,20250904110615404,None,231.06886291503906,-1,0,2,2,-2,-3,-8,-1,1756998375403888940,-76.0
0,5.055133104,20250904110615404,None,231.06886291503906,0,-6,-2,2,-1,2,10,2,1756998375404023647,-76.0
0,5.062535763,20250904110615411,None,231.06886291503906,-1,3,-2,-3,0,-1,-3,2,1756998375411404848,-77.0
0,5.062630653,20250904110615411,None,231.06886291503906,3,4,1,-2,-2,-1,-1,-4,1756998375411538600,-77.0
0,5.070023775,20250904110615419,None,231.3068389892578,2,-2,0,-3,-1,1,-1,-2,1756998375418861865,-76.0
0,5.070132971,20250904110615419,None,231.3068389892578,-1,5,-1,-1,0,-5,-4,-2,1756998375418968677,-76.0
0,5.085089445,20250904110615434,None,230.59292602539062,-5,-8,2,-1,0,-1,-1,-2,1756998375433921098,-76.0
0,5.085181713,20250904110615434,None,230.59292602539062,0,-7,-1,0,-1,1,1,0,1756998375434045791,-76.0
0,5.092517376,20250904110615441,None,231.78277587890625,0,-3,-2,1,-1,-4,-1,0,1756998375441377878,-77.0
0,5.092589617,20250904110615441,None,231.78277587890625,5,1,1,-1,1,-2,-4,-5,1756998375441492319,-77.0
0,5.100015163,20250904110615449,None,230.59292602539062,0,1,0,1,-3,-1,-1,-2,1756998375448892116,-76.0
0,5.100095749,20250904110615449,None,230.59292602539062,-2,3,1,-1,-3,0,-2,2,1756998375449014186,-76.0
0,5.115086555,20250904110615464,None,230.59292602539062,3,2,1,-1,-2,-5,-3,-2,1756998375463924884,-76.0
0,5.115178823,20250904110615464,None,230.59292602539062,-2,6,-3,1,0,-6,-6,-2,1756998375464085578,-76.0
0,5.122486353,20250904110615471,None,230.59292602539062,-2,-11,-1,-1,0,3,4,1,1756998375471376657,-76.0
0,5.122596741,20250904110615471,None,230.59292602539062,-3,2,0,-2,-2,-2,-1,-4,1756998375471495866,-76.0
0,5.129965067,20250904110615479,None,231.78277587890625,0,-5,-2,1,0,1,2,1,1756998375478848695,-77.0
0,5.130053758,20250904110615479,None,231.78277587890625,1,0,-5,-1,-1,-3,-3,0,1756998375478968620,-77.0
0,5.145133018,20250904110615494,None,231.3068389892578,-3,-5,-2,-1,0,-1,0,0,1756998375493939876,-77.0
0,5.145243883,20250904110615494,None,231.3068389892578,-1,-7,2,1,2,0,-2,1,1756998375494103670,-77.0
0,5.152683496,20250904110615501,None,231.3068389892578,2,3,2,0,1,2,-3,0,1756998375501414299,-76.0
0,5.152855158,20250904110615501,None,231.3068389892578,1,7,-1,1,-3,1,1,-1,1756998375501554965,-76.0
0,5.160059213,20250904110615509,None,231.3068389892578,-3,-6,0,2,-2,1,0,0,1756998375508877277,-76.0
0,5.160313368,20250904110615509,None,231.3068389892578,1,2,0,0,-1,3,-1,1,1756998375509003400,-76.0
0,5.175668001,20250904110615524,None,231.78277587890625,-3,-3,-3,-4,-1,0,0,-1,1756998375524434328,-77.0
0,5.175987482,20250904110615525,None,231.78277587890625,-2,-1,-2,0,-3,-1,-1,-1,1756998375524606466,-77.0
0,5.190820455,20250904110615539,None,232.020751953125,-2,0,-1,-1,1,0,0,2,1756998375539558887,-77.0
0,5.190962553,20250904110615540,None,232.020751953125,-5,-1,0,-5,-1,-3,0,-2,1756998375539738893,-77.0
0,5.192183256,20250904110615541,None,232.020751953125,0,1,0,0,-1,-3,-4,-2,1756998375540331363,-77.0
0,5.192605972,20250904110615541,None,232.020751953125,0,1,-1,0,0,-3,-7,-1,1756998375540519237,-77.0
0,5.205475092,20250904110615554,None,230.35494995117188,2,2,-1,-2,1,2,5,-1,1756998375553954601,-76.0
0,5.205701113,20250904110615554,None,230.35494995117188,-2,4,1,-4,-4,-4,-2,-1,1756998375554115056,-77.0
0,5.212572813,20250904110615561,None,231.78277587890625,-5,-11,-4,2,-2,-1,-6,-2,1756998375561364412,-77.0
0,5.212685823,20250904110615561,None,231.78277587890625,1,1,-1,0,-3,1,0,-1,1756998375561504840,-77.0
0,5.220027923,20250904110615569,None,230.83090209960938,1,0,2,-2,2,1,-1,-4,1756998375568871021,-76.0
0,5.220106363,20250904110615569,None,230.83090209960938,-4,-1,-1,-4,-2,-1,-1,-3,1756998375568993091,-76.0
0,5.2353158,20250904110615584,None,231.06886291503906,2,1,1,2,1,0,-3,1,1756998375584027051,-76.0
0,5.235491037,20250904110615584,None,231.06886291503906,-3,-5,0,2,-1,-4,0,-1,1756998375584205865,-76.0
0,5.2425177099999996,20250904110615591,None,231.3068389892578,1,13,-3,0,0,0,3,0,1756998375591352462,-76.0
0,5.242619037,20250904110615591,None,231.3068389892578,-2,-11,-1,-4,1,-4,0,0,1756998375591481685,-76.0
0,5.249981165,20250904110615599,None,230.83090209960938,-2,-6,2,1,-1,2,-1,-3,1756998375598816394,-76.0
0,5.250072479,20250904110615599,None,230.83090209960938,2,-15,-3,-3,-3,-6,-11,-6,1756998375598935842,-76.0
0,5.265144825,20250904110615614,None,230.1169891357422,-2,-3,-4,-2,0,3,6,-3,1756998375613929033,-76.0
0,5.265269756,20250904110615614,None,230.1169891357422,-1,3,0,-3,-2,1,0,-2,1756998375614079952,-76.0
0,5.272641897,20250904110615621,None,231.5447998046875,-1,3,1,0,-4,0,1,2,1756998375621452808,-77.0
0,5.272776365,20250904110615621,None,231.5447998046875,3,1,-1,-1,-2,-3,-2,-2,1756998375621654510,-77.0
0,5.280076027,20250904110615629,None,231.5447998046875,2,3,0,0,1,-1,2,-1,1756998375628881931,-76.0
0,5.2802217,20250904110615629,None,231.5447998046875,-4,4,1,-1,-3,-1,-1,-3,1756998375629022836,-76.0
0,5.295024156,20250904110615644,None,231.5447998046875,-2,5,1,-3,-3,-4,-1,0,1756998375643840551,-77.0
0,5.295134067,20250904110615644,None,231.5447998046875,-2,-11,-2,-2,-3,-1,-1,1,1756998375643975019,-77.0
0,5.302578926,20250904110615651,None,230.59292602539062,4,5,1,1,0,1,3,-3,1756998375651392221,-76.0
0,5.302687883,20250904110615651,None,230.59292602539062,-1,-6,-2,0,-1,-3,-1,-3,1756998375651530981,-76.0
0,5.31768322,20250904110615666,None,231.06886291503906,0,-1,0,4,1,-1,-1,3,1756998375666483163,-76.0
0,5.317789078,20250904110615666,None,231.06886291503906,-1,-3,-2,0,2,-1,-1,-2,1756998375666624307,-76.0
0,5.32497406,20250904110615674,None,231.06886291503906,1,3,-3,1,0,-2,0,0,1756998375673815965,-76.0
0,5.325031757,20250904110615674,None,231.06886291503906,-2,0,0,-1,0,1,-2,-1,1756998375673952102,-76.0
0,5.332781315,20250904110615681,None,231.06886291503906,-6,-5,1,-1,-3,-2,-9,-3,1756998375681598901,-76.0
0,5.332879782,20250904110615681,None,231.06886291503906,-1,6,-1,-1,0,3,2,0,1756998375681746244,-76.0
0,5.340039015,20250904110615689,None,231.5447998046875,0,-4,-2,1,-1,1,5,3,1756998375688883781,-77.0
0,5.340137482,20250904110615689,None,231.5447998046875,-1,-5,2,0,2,2,-5,0,1756998375689010620,-77.0
0,5.355053663,20250904110615704,None,231.78277587890625,0,3,0,3,-1,1,-3,0,1756998375703863143,-77.0
0,5.35515809,20250904110615704,None,231.78277587890625,-1,0,-2,-1,-3,-1,-4,-2,1756998375704032421,-77.0
0,5.362667084,20250904110615711,None,230.59292602539062,-2,-5,2,1,-3,-1,-4,-3,1756998375711494445,-76.0
0,5.36279583,20250904110615711,None,230.59292602539062,-2,5,-2,-1,-2,0,0,-1,1756998375711645364,-76.0
0,5.377584219,20250904110615726,None,231.5447998046875,0,-5,-1,1,-3,-1,-1,1,1756998375726416587,-77.0
0,5.377688408,20250904110615726,None,231.5447998046875,2,-3,-4,-2,-2,-2,0,-1,1756998375726547241,-77.0
0,5.385001182,20250904110615734,None,230.35494995117188,-3,2,0,2,-1,-2,-1,2,1756998375733851432,-76.0
0,5.385089159,20250904110615734,None,230.35494995117188,-3,-2,-2,-4,-2,-3,0,-3,1756998375733972311,-76.0
0,5.392707586,20250904110615741,None,231.5447998046875,1,8,1,0,0,1,0,2,1756998375741410732,-77.0
0,5.392917156,20250904110615741,None,231.5447998046875,2,-5,-2,1,1,-3,-2,-1,1756998375741544008,-77.0
0,5.400183439,20250904110615749,None,230.83090209960938,-1,0,-1,-1,0,-3,-3,-1,1756998375748931884,-76.0
0,5.400372505,20250904110615749,None,230.83090209960938,1,3,-2,-5,-3,1,9,1,1756998375749082803,-76.0
0,5.423291206,20250904110615772,None,231.5447998046875,-1,4,1,-2,-2,-2,-1,-1,1756998375772046566,-76.0
0,5.423453092,20250904110615772,None,231.5447998046875,-6,-13,-3,-5,-1,-2,-2,-1,1756998375772196054,-76.0
0,5.423897266,20250904110615772,None,231.5447998046875,0,-2,-6,-3,-1,-1,-1,-1,1756998375772772073,-76.0
0,5.42398119,20250904110615773,None,231.5447998046875,2,2,0,-2,0,0,-3,-1,1756998375772881269,-76.0
0,5.437754631,20250904110615786,None,231.78277587890625,-4,-3,0,2,-1,-3,-2,-1,1756998375786490201,-77.0
0,5.437905788,20250904110615786,None,231.78277587890625,-1,5,1,-2,0,-2,2,-2,1756998375786630153,-77.0
0,5.445181846,20250904110615794,None,231.78277587890625,1,3,-3,2,-2,-2,-2,-3,1756998375793902158,-76.0
0,5.445369959,20250904110615794,None,231.78277587890625,-2,0,-1,0,-3,0,1,0,1756998375794056653,-76.0
0,5.452695846,20250904110615801,None,230.1169891357422,1,-1,0,1,0,-1,-2,-1,1756998375801430463,-76.0
0,5.452845335,20250904110615801,None,230.1169891357422,-2,-2,1,-1,0,1,-1,0,1756998375801576852,-76.0
0,5.4601881500000005,20250904110615809,None,231.78277587890625,2,1,1,-1,-1,4,2,-1,1756998375808914661,-77.0
0,5.460371494,20250904110615809,None,231.78277587890625,-3,12,1,1,-3,-1,-2,1,1756998375809069871,-77.0
0,5.475299597,20250904110615824,None,231.5447998046875,-6,-19,-2,-1,-3,-2,-6,-1,1756998375823992729,-77.0
0,5.475463629,20250904110615824,None,231.5447998046875,-1,-1,0,-2,-1,3,3,2,1756998375824150323,-77.0
0,5.483063698,20250904110615832,None,231.5447998046875,2,-3,0,2,1,-1,-1,-2,1756998375831770658,-76.0
0,5.483357906,20250904110615832,None,231.06886291503906,1,-1,2,0,-1,-2,-1,-1,1756998375831975221,-76.0
0,5.49759531,20250904110615846,None,230.83090209960938,-1,0,0,-2,2,0,-4,-2,1756998375846375465,-76.0
0,5.497732401,20250904110615846,None,230.83090209960938,2,8,-2,1,2,-3,-3,1,1756998375846511363,-76.0
0,5.505143165,20250904110615854,None,231.3068389892578,-3,0,-2,0,0,-1,-2,-4,1756998375853907823,-76.0
0,5.505297422,20250904110615854,None,231.3068389892578,0,-3,0,-2,-1,1,1,2,1756998375854061603,-76.0
0,5.512670755,20250904110615861,None,230.59292602539062,2,1,1,-3,-1,0,1,-2,1756998375861438512,-76.0
0,5.512794256,20250904110615861,None,230.59292602539062,-4,-1,-2,-1,-1,-1,-4,0,1756998375861594915,-76.0
0,5.520001411,20250904110615869,None,232.020751953125,-2,-3,-2,-3,0,1,0,-1,1756998375868833541,-77.0
0,5.520086765,20250904110615869,None,232.020751953125,-2,-4,-5,-1,-1,-2,-3,-2,1756998375868954420,-77.0
0,5.535250902,20250904110615884,None,230.59292602539062,-1,-2,-2,1,-1,-3,-2,0,1756998375883980035,-76.0
0,5.535397529,20250904110615884,None,230.59292602539062,-1,-1,-2,-2,-1,-6,-11,-3,1756998375884119987,-76.0
0,5.542619943,20250904110615891,None,231.78277587890625,1,0,-1,0,-1,4,11,1,1756998375891440391,-77.0
0,5.542789459,20250904110615891,None,231.78277587890625,1,1,-1,1,-3,1,-1,-2,1756998375891567468,-77.0
0,5.557606935,20250904110615906,None,231.3068389892578,0,0,3,3,0,0,-2,1,1756998375906422853,-77.0
0,5.557714462,20250904110615906,None,231.3068389892578,-3,6,-1,-1,1,1,-1,1,1756998375906565189,-77.0
0,5.565178871,20250904110615914,None,231.3068389892578,-3,-10,-2,-3,-3,-4,-6,-3,1756998375913872718,-77.0
0,5.565404653,20250904110615914,None,231.3068389892578,1,-5,1,0,0,1,0,-1,1756998375913995504,-77.0
0,5.572959184,20250904110615921,None,231.06886291503906,5,7,-2,2,3,1,-1,0,1756998375921442031,-76.0
0,5.573057413,20250904110615922,None,231.06886291503906,-1,2,0,1,0,-2,-1,-4,1756998375921572685,-76.0
0,5.580143213,20250904110615929,None,231.3068389892578,-4,-10,0,-2,-1,1,2,0,1756998375928859710,-77.0
0,5.5804004670000005,20250904110615929,None,231.3068389892578,-1,-5,-1,-1,0,-1,1,1,1756998375929007530,-77.0
0,5.595172405,20250904110615944,None,230.59292602539062,-3,2,-1,-1,0,-2,-3,-2,1756998375943884611,-76.0
0,5.595476627,20250904110615944,None,230.59292602539062,-2,1,-2,-2,-3,-3,2,-1,1756998375944019556,-76.0
0,5.60272932,20250904110615951,None,230.59292602539062,0,-2,-2,0,0,-4,0,1,1756998375951414346,-76.0
0,5.603018999,20250904110615952,None,230.59292602539062,-1,6,1,2,0,-5,-8,-3,1756998375951552152,-77.0
0,5.617878198,20250904110615966,None,230.35494995117188,0,-1,-5,-3,-2,-1,0,-1,1756998375966493844,-76.0
0,5.6180763240000005,20250904110615967,None,230.35494995117188,-2,3,-1,-1,0,0,3,1,1756998375966672182,-76.0
0,5.62544465,20250904110615974,None,231.5447998046875,0,-3,0,0,1,-1,-1,2,1756998375974098682,-77.0
0,5.625589609,20250904110615974,None,231.5447998046875,-3,-2,3,-1,-3,-3,0,-1,1756998375974303483,-77.0
0,5.63307786,20250904110615982,None,230.1169891357422,-1,0,3,2,1,-2,1,1,1756998375981671094,-76.0
0,5.633304119,20250904110615982,None,230.1169891357422,-1,-3,-3,2,0,-1,-3,-5,1756998375981848001,-76.0
0,5.648062229,20250904110615997,None,231.78277587890625,-1,3,-3,-4,-2,-3,2,-3,1756998375996481418,-77.0
0,5.648349047,20250904110615997,None,231.78277587890625,4,11,2,2,2,2,-1,-1,1756998375996635675,-76.0
0,5.655399561,20250904110616004,None,230.83090209960938,-4,-12,-2,-2,-3,2,0,-2,1756998376003940105,-76.0
0,5.65551281,20250904110616004,None,230.83090209960938,-2,-7,-3,0,-4,-1,2,2,1756998376004070758,-76.0
0,5.662673712,20250904110616011,None,231.06886291503906,0,1,-3,-1,1,0,-4,0,1756998376011470556,-77.0
0,5.662772655,20250904110616011,None,231.06886291503906,3,3,-4,-1,-1,3,4,1,1756998376011626958,-77.0
0,5.677443027,20250904110616026,None,230.59292602539062,1,1,1,0,0,0,1,-5,1756998376026299238,-76.0
0,5.677518844,20250904110616026,None,230.59292602539062,-2,-1,0,-3,-1,0,-3,1,1756998376026421785,-76.0
0,5.685090303,20250904110616034,None,230.59292602539062,-1,-3,1,-1,-1,0,-5,-2,1756998376033910036,-77.0
0,5.685185671,20250904110616034,None,230.59292602539062,0,5,1,1,-1,0,1,-3,1756998376034040927,-77.0
0,5.692905187,20250904110616041,None,231.5447998046875,-2,-5,-6,-2,1,-1,-1,0,1756998376041687726,-76.0
0,5.693021297,20250904110616042,None,231.5447998046875,-2,-3,-1,-1,-2,-1,-1,0,1756998376041878461,-76.0
0,5.707766771,20250904110616056,None,231.5447998046875,1,0,-2,-1,0,-2,3,0,1756998376056584596,-77.0
0,5.707863569,20250904110616056,None,231.5447998046875,2,8,-1,0,-2,-1,-6,0,1756998376056742906,-77.0
0,5.715294123,20250904110616064,None,230.1169891357422,0,3,1,-1,0,-2,-1,0,1756998376064049243,-76.0
0,5.715399265,20250904110616064,None,230.1169891357422,-2,-3,-2,-1,2,-1,-1,1,1756998376064180135,-76.0
0,5.722634315,20250904110616071,None,231.5447998046875,-2,0,-2,-1,1,-3,-2,-3,1756998376071492671,-77.0
0,5.722731352,20250904110616071,None,231.5447998046875,-1,5,-1,-3,2,-1,0,-1,1756998376071616172,-77.0
0,5.745885849,20250904110616094,None,231.3068389892578,0,-3,2,0,0,0,1,4,1756998376094684362,-77.0
0,5.746006965,20250904110616095,None,231.3068389892578,0,1,1,-1,1,0,-3,4,1756998376094833135,-77.0
0,5.746569395,20250904110616095,None,231.3068389892578,-4,-17,-5,-3,-4,-2,-3,0,1756998376095462083,-77.0
0,5.746652365,20250904110616095,None,231.3068389892578,1,-3,-2,1,2,1,-3,-2,1756998376095573663,-77.0
0,5.752622366,20250904110616101,None,231.06886291503906,-1,2,-1,0,-2,-1,-6,-3,1756998376101459264,-76.0
0,5.752739191,20250904110616101,None,231.06886291503906,1,4,3,0,-1,-5,-5,-1,1756998376101581096,-76.0
0,5.7678267949999995,20250904110616116,None,230.59292602539062,-2,3,-1,0,2,0,6,1,1756998376116553544,-76.0
0,5.767935991,20250904110616116,None,230.59292602539062,-1,0,2,2,-1,-2,3,1,1756998376116697072,-76.0
0,5.775177479,20250904110616124,None,231.5447998046875,-1,-7,0,0,-1,2,-2,1,1756998376123966217,-77.0
0,5.775329828,20250904110616124,None,231.5447998046875,-1,-5,-2,-1,-3,-2,-5,-2,1756998376124087095,-77.0
0,5.782824039,20250904110616131,None,230.1169891357422,0,1,-3,-1,1,-1,-3,-2,1756998376131613731,-76.0
0,5.782925367,20250904110616131,None,230.1169891357422,2,6,2,-2,-2,-1,1,0,1756998376131796121,-76.0
0,5.797922611,20250904110616146,None,230.35494995117188,0,-4,-4,-1,1,0,-1,-1,1756998376146680355,-76.0
0,5.797998428,20250904110616147,None,230.35494995117188,-1,1,-3,-7,-1,2,2,1,1756998376146845579,-76.0
0,5.805444002,20250904110616154,None,231.5447998046875,3,-3,-1,0,-3,-3,0,1,1756998376154196500,-77.0
0,5.805535316,20250904110616154,None,231.5447998046875,-3,-7,-3,0,-4,-4,1,0,1756998376154432535,-77.0
0,5.812898874,20250904110616161,None,231.5447998046875,-4,0,-1,-1,-4,1,2,1,1756998376161653518,-77.0
0,5.812986135,20250904110616162,None,231.5447998046875,1,5,-3,-3,1,-1,-3,-2,1756998376161854267,-77.0
0,5.827694654,20250904110616176,None,231.3068389892578,-2,-3,-1,-1,1,-1,-5,-2,1756998376176465511,-77.0
0,5.8277890679999995,20250904110616176,None,231.3068389892578,0,4,-1,-2,-1,2,0,-3,1756998376176622152,-77.0
0,5.843317509,20250904110616192,None,230.83090209960938,0,-5,-3,-1,-1,3,4,0,1756998376192093849,-76.0
0,5.843422174,20250904110616192,None,230.83090209960938,-4,-12,-4,-5,-2,-2,-1,0,1756998376192256689,-76.0
0,5.843894958,20250904110616192,None,230.83090209960938,0,-6,-3,-3,0,0,0,-3,1756998376192770719,-76.0
0,5.8439636230000005,20250904110616192,None,230.83090209960938,-5,3,-3,-1,-3,-2,-3,0,1756998376192877769,-76.0
0,5.857641458,20250904110616206,None,231.3068389892578,2,5,1,-1,-1,-1,-2,0,1756998376206467866,-76.0
0,5.857764721,20250904110616206,None,231.3068389892578,1,-2,-2,-3,3,1,-1,1,1756998376206593513,-76.0
0,5.865116834,20250904110616214,None,230.1169891357422,0,-7,-1,-1,-1,0,1,1,1756998376213933229,-76.0
0,5.8652215,20250904110616214,None,230.1169891357422,-2,2,-1,0,-3,0,3,-1,1756998376214074850,-76.0
0,5.872516632,20250904110616221,None,232.020751953125,2,2,-1,-1,-3,-1,-2,-2,1756998376221386194,-77.0
0,5.872605324,20250904110616221,None,232.020751953125,1,-2,0,-4,-2,-1,1,-1,1756998376221508026,-77.0
0,5.887415886,20250904110616236,None,230.1169891357422,0,2,-1,1,0,-2,0,0,1756998376236301422,-77.0
